-5.519999999999999733e-03
-5.624999999999999792e-03
-5.760999999999999628e-03
-5.734999999999999647e-03
-5.571000000000000431e-03
-5.505999999999999610e-03
-5.617999999999999730e-03
-5.785000000000000211e-03
-5.793000000000000406e-03
-5.632999999999999986e-03
-5.563000000000000236e-03
-5.695999999999999674e-03
-5.863000000000000156e-03
-5.858999999999999625e-03
-5.701000000000000338e-03
-5.624999999999999792e-03
-5.745000000000000107e-03
-5.896000000000000199e-03
-5.878999999999999677e-03
-5.719000000000000125e-03
-5.642999999999999579e-03
-5.753000000000000301e-03
-5.898999999999999730e-03
-5.885999999999999739e-03
-5.725000000000000054e-03
-5.654000000000000171e-03
-5.768999999999999823e-03
-5.917000000000000384e-03
-5.895000000000000066e-03
-5.733000000000000249e-03
-5.656999999999999702e-03
-5.765000000000000159e-03
-5.902000000000000128e-03
-5.883000000000000208e-03
-5.723999999999999921e-03
-5.655999999999999570e-03
-5.787999999999999742e-03
-5.987000000000000134e-03
-5.977999999999999807e-03
-5.703999999999999869e-03
-5.445000000000000187e-03
-5.307000000000000085e-03
-5.139000000000000339e-03
-4.766000000000000271e-03
-4.304999999999999799e-03
-4.042999999999999719e-03
-4.336999999999999710e-03
-4.974000000000000123e-03
-5.455999999999999912e-03
-5.666000000000000029e-03
-5.708999999999999665e-03
-5.762999999999999894e-03
-5.837000000000000174e-03
-5.791000000000000140e-03
-5.609000000000000270e-03
-5.529000000000000060e-03
-5.650999999999999773e-03
-5.804000000000000131e-03
-5.792000000000000273e-03
-5.636999999999999650e-03
-5.568000000000000033e-03
-5.683999999999999816e-03
-5.825000000000000316e-03
-5.802999999999999999e-03
-5.637999999999999783e-03
-5.564999999999999634e-03
-5.680000000000000153e-03
-5.817000000000000122e-03
-5.790000000000000008e-03
-5.627000000000000057e-03
-5.558999999999999705e-03
-5.669000000000000428e-03
-5.811000000000000193e-03
-5.787999999999999742e-03
-5.623000000000000394e-03
-5.549000000000000113e-03
-5.655999999999999570e-03
-5.792000000000000273e-03
-5.756999999999999965e-03
-5.599999999999999943e-03
-5.526999999999999795e-03
-5.634000000000000119e-03
-5.774999999999999752e-03
-5.745000000000000107e-03
-5.577999999999999625e-03
-5.500999999999999814e-03
-5.614000000000000067e-03
-5.756999999999999965e-03
-5.727000000000000320e-03
-5.555000000000000042e-03
-5.481999999999999894e-03
-5.590999999999999616e-03
-5.725000000000000054e-03
-5.688999999999999613e-03
-5.518999999999999601e-03
-5.439000000000000258e-03
-5.537000000000000255e-03
-5.675999999999999622e-03
-5.649000000000000375e-03
-5.480999999999999761e-03
-5.402999999999999817e-03
-5.504000000000000212e-03
-5.632999999999999986e-03
-5.594000000000000014e-03
-5.408999999999999746e-03
-5.341000000000000261e-03
-5.446999999999999585e-03
-5.577000000000000360e-03
-5.532999999999999724e-03
-5.361999999999999579e-03
-5.289000000000000298e-03
-5.389999999999999826e-03
-5.516000000000000070e-03
-5.472000000000000301e-03
-5.305999999999999953e-03
-5.232999999999999804e-03
-5.331999999999999934e-03
-5.459000000000000311e-03
-5.422999999999999869e-03
-5.259999999999999919e-03
-5.194999999999999965e-03
-5.313000000000000014e-03
-5.464000000000000107e-03
-5.453999999999999647e-03
-5.311999999999999882e-03
-5.263000000000000317e-03
-5.401999999999999684e-03
-5.577000000000000360e-03
-5.578999999999999758e-03
-5.440000000000000391e-03
-5.396999999999999888e-03
-5.531000000000000326e-03
-5.701000000000000338e-03
-5.703999999999999869e-03
-5.568000000000000033e-03
-5.517000000000000202e-03
-5.642999999999999579e-03
-5.792000000000000273e-03
-5.772000000000000221e-03
-5.617999999999999730e-03
-5.553999999999999909e-03
-5.666000000000000029e-03
-5.810000000000000060e-03
-5.792000000000000273e-03
-5.636999999999999650e-03
-5.573999999999999962e-03
-5.690999999999999878e-03
-5.836000000000000042e-03
-5.811000000000000193e-03
-5.653000000000000039e-03
-5.589000000000000218e-03
-5.702999999999999736e-03
-5.832000000000000378e-03
-5.802999999999999999e-03
-5.635000000000000252e-03
-5.564000000000000369e-03
-5.681000000000000286e-03
-5.831000000000000245e-03
-5.795999999999999937e-03
-5.636000000000000384e-03
-5.577000000000000360e-03
-5.689999999999999745e-03
-5.832999999999999644e-03
-5.805000000000000264e-03
-5.642000000000000313e-03
-5.570000000000000298e-03
-5.682999999999999684e-03
-5.827999999999999847e-03
-5.797000000000000069e-03
-5.629000000000000323e-03
-5.573999999999999962e-03
-5.705000000000000002e-03
-5.840999999999999838e-03
-5.812000000000000326e-03
-5.637999999999999783e-03
-5.581000000000000023e-03
-5.712000000000000063e-03
-5.841999999999999971e-03
-5.814999999999999857e-03
-5.654000000000000171e-03
-5.602000000000000209e-03
-5.726000000000000187e-03
-5.863000000000000156e-03
-5.827999999999999847e-03
-5.667000000000000162e-03
-5.607000000000000005e-03
-5.728999999999999718e-03
-5.871000000000000350e-03
-5.823000000000000051e-03
-5.642999999999999579e-03
-5.579999999999999891e-03
-5.719000000000000125e-03
-5.880999999999999943e-03
-5.845999999999999634e-03
-5.680000000000000153e-03
-5.617999999999999730e-03
-5.739000000000000178e-03
-5.872999999999999748e-03
-5.833999999999999776e-03
-5.663999999999999764e-03
-5.607000000000000005e-03
-5.728999999999999718e-03
-5.866999999999999819e-03
-5.832999999999999644e-03
-5.682000000000000418e-03
-5.627000000000000057e-03
-5.749999999999999903e-03
-5.897000000000000332e-03
-5.856000000000000094e-03
-5.688999999999999613e-03
-5.637999999999999783e-03
-5.755999999999999832e-03
-5.883000000000000208e-03
-5.834999999999999909e-03
-5.660000000000000100e-03
-5.608000000000000138e-03
-5.739000000000000178e-03
-5.869000000000000085e-03
-5.830000000000000113e-03
-5.682999999999999684e-03
-5.623999999999999659e-03
-5.733000000000000249e-03
-5.879999999999999810e-03
-5.854999999999999961e-03
-5.688999999999999613e-03
-5.634000000000000119e-03
-5.767999999999999690e-03
-5.892999999999999801e-03
-5.838000000000000307e-03
-5.674000000000000224e-03
-5.629000000000000323e-03
-5.749999999999999903e-03
-5.872999999999999748e-03
-5.839999999999999705e-03
-5.677999999999999887e-03
-5.608000000000000138e-03
-5.723999999999999921e-03
-5.864000000000000289e-03
-5.858999999999999625e-03
-5.695999999999999674e-03
-5.637999999999999783e-03
-5.765000000000000159e-03
-5.896000000000000199e-03
-5.837000000000000174e-03
-5.671999999999999958e-03
-5.615000000000000199e-03
-5.753000000000000301e-03
-5.895000000000000066e-03
-5.845999999999999634e-03
-5.669000000000000428e-03
-5.616000000000000332e-03
-5.741999999999999708e-03
-5.860999999999999890e-03
-5.834999999999999909e-03
-5.689999999999999745e-03
-5.642999999999999579e-03
-5.768999999999999823e-03
-5.882000000000000076e-03
-5.825999999999999582e-03
-5.674000000000000224e-03
-5.582000000000000156e-03
-5.695999999999999674e-03
-5.821999999999999918e-03
-5.764000000000000026e-03
-5.597999999999999678e-03
-5.539999999999999786e-03
-5.674000000000000224e-03
-5.778000000000000150e-03
-5.702999999999999736e-03
-5.552999999999999776e-03
-5.497000000000000150e-03
-5.616000000000000332e-03
-5.753999999999999566e-03
-5.728999999999999718e-03
-5.597000000000000412e-03
-5.550000000000000246e-03
-5.682000000000000418e-03
-5.838000000000000307e-03
-5.808999999999999928e-03
-5.668000000000000295e-03
-5.625999999999999925e-03
-5.769999999999999955e-03
-5.916000000000000252e-03
-5.866999999999999819e-03
-5.712000000000000063e-03
-5.667000000000000162e-03
-5.804000000000000131e-03
-5.955000000000000224e-03
-5.905999999999999792e-03
-5.746000000000000239e-03
-5.670999999999999826e-03
-5.786000000000000344e-03
-5.912999999999999853e-03
-5.885999999999999739e-03
-5.734999999999999647e-03
-5.668000000000000295e-03
-5.800999999999999733e-03
-5.932999999999999906e-03
-5.896000000000000199e-03
-5.726000000000000187e-03
-5.677999999999999887e-03
-5.814999999999999857e-03
-5.948000000000000162e-03
-5.945999999999999897e-03
-5.823000000000000051e-03
-5.753999999999999566e-03
-5.742999999999999841e-03
-5.658999999999999968e-03
-5.333000000000000067e-03
-4.874999999999999993e-03
-4.520999999999999845e-03
-4.381999999999999611e-03
-4.366000000000000089e-03
-4.543000000000000163e-03
-4.873999999999999860e-03
-5.318999999999999943e-03
-5.753000000000000301e-03
-5.961000000000000153e-03
-5.882000000000000076e-03
-5.653000000000000039e-03
-5.585999999999999820e-03
-5.721999999999999656e-03
-5.865999999999999687e-03
-5.802999999999999999e-03
-5.635000000000000252e-03
-5.603000000000000341e-03
-5.733000000000000249e-03
-5.869000000000000085e-03
-5.819999999999999653e-03
-5.662999999999999631e-03
-5.631999999999999854e-03
-5.740999999999999576e-03
-5.865000000000000421e-03
-5.847999999999999900e-03
-5.679000000000000020e-03
-5.632999999999999986e-03
-5.761999999999999761e-03
-5.902000000000000128e-03
-5.815999999999999989e-03
-5.627000000000000057e-03
-5.591999999999999749e-03
-5.746000000000000239e-03
-5.865000000000000421e-03
-5.807999999999999795e-03
-5.649999999999999641e-03
-5.599999999999999943e-03
-5.728999999999999718e-03
-5.852000000000000431e-03
-5.794999999999999804e-03
-5.647000000000000110e-03
-5.612999999999999934e-03
-5.721999999999999656e-03
-5.846999999999999767e-03
-5.775999999999999884e-03
-5.605999999999999872e-03
-5.564000000000000369e-03
-5.682999999999999684e-03
-5.824000000000000184e-03
-5.781999999999999813e-03
-5.597000000000000412e-03
-5.521999999999999999e-03
-5.643999999999999712e-03
-5.788999999999999875e-03
-5.739000000000000178e-03
-5.570000000000000298e-03
-5.509000000000000008e-03
-5.616999999999999597e-03
-5.709999999999999798e-03
-5.661000000000000233e-03
-5.530000000000000193e-03
-5.480999999999999761e-03
-5.573999999999999962e-03
-5.683999999999999816e-03
-5.609000000000000270e-03
-5.441999999999999789e-03
-5.399000000000000153e-03
-5.519999999999999733e-03
-5.642000000000000313e-03
-5.572999999999999829e-03
-5.402999999999999817e-03
-5.366000000000000110e-03
-5.471000000000000169e-03
-5.578999999999999758e-03
-5.530000000000000193e-03
-5.380000000000000233e-03
-5.316999999999999678e-03
-5.431000000000000064e-03
-5.576000000000000227e-03
-5.523000000000000131e-03
-5.363999999999999845e-03
-5.310999999999999749e-03
-5.472000000000000301e-03
-5.654000000000000171e-03
-5.636999999999999650e-03
-5.496000000000000017e-03
-5.480999999999999761e-03
-5.623000000000000394e-03
-5.773000000000000353e-03
-5.747999999999999637e-03
-5.607000000000000005e-03
-5.584000000000000422e-03
-5.745000000000000107e-03
-5.883000000000000208e-03
-5.813999999999999724e-03
-5.657999999999999835e-03
-5.640000000000000048e-03
-5.781999999999999813e-03
-5.900999999999999995e-03
-5.862000000000000023e-03
-5.700000000000000205e-03
-5.658999999999999968e-03
-5.795999999999999937e-03
-5.938999999999999835e-03
-5.880999999999999943e-03
-5.699000000000000073e-03
-5.675999999999999622e-03
-5.798000000000000202e-03
-5.911999999999999721e-03
-5.862000000000000023e-03
-5.700000000000000205e-03
-5.668000000000000295e-03
-5.802999999999999999e-03
-5.917000000000000384e-03
-5.870000000000000218e-03
-5.700000000000000205e-03
-5.655000000000000304e-03
-5.808999999999999928e-03
-5.923999999999999579e-03
-5.870000000000000218e-03
-5.705000000000000002e-03
-5.654000000000000171e-03
-5.784000000000000079e-03
-5.911999999999999721e-03
-5.852999999999999696e-03
-5.686000000000000082e-03
-5.647000000000000110e-03
-5.772000000000000221e-03
-5.885999999999999739e-03
-5.845999999999999634e-03
-5.715999999999999727e-03
-5.676999999999999755e-03
-5.786000000000000344e-03
-5.912999999999999853e-03
-5.847999999999999900e-03
-5.669999999999999693e-03
-5.634000000000000119e-03
-5.793000000000000406e-03
-5.923000000000000313e-03
-5.870000000000000218e-03
-5.701000000000000338e-03
-5.650999999999999773e-03
-5.773999999999999619e-03
-5.893999999999999934e-03
-5.849000000000000032e-03
-5.688000000000000347e-03
-5.648000000000000242e-03
-5.781999999999999813e-03
-5.908000000000000057e-03
-5.841999999999999971e-03
-5.677999999999999887e-03
-5.642999999999999579e-03
-5.778000000000000150e-03
-5.898999999999999730e-03
-5.843000000000000103e-03
-5.675000000000000357e-03
-5.636000000000000384e-03
-5.767000000000000424e-03
-5.890000000000000270e-03
-5.845999999999999634e-03
-5.688000000000000347e-03
-5.632999999999999986e-03
-5.771000000000000088e-03
-5.903000000000000261e-03
-5.852000000000000431e-03
-5.694000000000000276e-03
-5.642999999999999579e-03
-5.768999999999999823e-03
-5.883000000000000208e-03
-5.826999999999999715e-03
-5.675999999999999622e-03
-5.642000000000000313e-03
-5.787999999999999742e-03
-5.904999999999999659e-03
-5.858000000000000360e-03
-5.692000000000000011e-03
-5.653000000000000039e-03
-5.772000000000000221e-03
-5.898999999999999730e-03
-5.852999999999999696e-03
-5.690999999999999878e-03
-5.642000000000000313e-03
-5.780000000000000415e-03
-5.904999999999999659e-03
-5.863000000000000156e-03
-5.696999999999999807e-03
-5.654000000000000171e-03
-5.775999999999999884e-03
-5.904000000000000394e-03
-5.862000000000000023e-03
-5.692000000000000011e-03
-5.653000000000000039e-03
-5.772000000000000221e-03
-5.889000000000000137e-03
-5.841999999999999971e-03
-5.688000000000000347e-03
-5.663999999999999764e-03
-5.794999999999999804e-03
-5.910999999999999588e-03
-5.850000000000000165e-03
-5.703999999999999869e-03
-5.668000000000000295e-03
-5.800999999999999733e-03
-5.917000000000000384e-03
-5.849000000000000032e-03
-5.674000000000000224e-03
-5.623999999999999659e-03
-5.728999999999999718e-03
-5.836000000000000042e-03
-5.780000000000000415e-03
-5.605999999999999872e-03
-5.557999999999999573e-03
-5.680000000000000153e-03
-5.785000000000000211e-03
-5.725000000000000054e-03
-5.571999999999999696e-03
-5.543000000000000184e-03
-5.688000000000000347e-03
-5.828999999999999980e-03
-5.773999999999999619e-03
-5.616999999999999597e-03
-5.591999999999999749e-03
-5.745000000000000107e-03
-5.904999999999999659e-03
-5.871999999999999616e-03
-5.717999999999999992e-03
-5.682000000000000418e-03
-5.823000000000000051e-03
-5.955000000000000224e-03
-5.910999999999999588e-03
-5.752000000000000168e-03
-5.705000000000000002e-03
-5.849000000000000032e-03
-5.976000000000000409e-03
-5.923999999999999579e-03
-5.769999999999999955e-03
-5.734999999999999647e-03
-5.852999999999999696e-03
-5.963000000000000418e-03
-5.906999999999999924e-03
-5.758000000000000097e-03
-5.713000000000000196e-03
-5.834999999999999909e-03
-5.963999999999999684e-03
-5.916000000000000252e-03
-5.754999999999999699e-03
-5.725000000000000054e-03
-5.889000000000000137e-03
-6.050999999999999955e-03
-5.949000000000000295e-03
-5.641000000000000181e-03
-5.407000000000000348e-03
-5.287000000000000033e-03
-5.093999999999999570e-03
-4.702999999999999715e-03
-4.277000000000000419e-03
-4.113000000000000336e-03
-4.538999999999999632e-03
-5.148999999999999931e-03
-5.540999999999999918e-03
-5.679000000000000020e-03
-5.682999999999999684e-03
-5.760999999999999628e-03
-5.858000000000000360e-03
-5.805000000000000264e-03
-5.636000000000000384e-03
-5.603999999999999607e-03
-5.745000000000000107e-03
-5.876000000000000147e-03
-5.832000000000000378e-03
-5.680000000000000153e-03
-5.642000000000000313e-03
-5.766000000000000292e-03
-5.884999999999999606e-03
-5.832999999999999644e-03
-5.674000000000000224e-03
-5.642000000000000313e-03
-5.768999999999999823e-03
-5.886999999999999872e-03
-5.833999999999999776e-03
-5.669000000000000428e-03
-5.628000000000000190e-03
-5.754999999999999699e-03
-5.883000000000000208e-03
-5.817000000000000122e-03
-5.649000000000000375e-03
-5.612999999999999934e-03
-5.742999999999999841e-03
-5.857000000000000227e-03
-5.798000000000000202e-03
-5.637999999999999783e-03
-5.597999999999999678e-03
-5.728999999999999718e-03
-5.851000000000000298e-03
-5.787999999999999742e-03
-5.629000000000000323e-03
-5.585999999999999820e-03
-5.713000000000000196e-03
-5.832000000000000378e-03
-5.773999999999999619e-03
-5.609000000000000270e-03
-5.572999999999999829e-03
-5.699000000000000073e-03
-5.810000000000000060e-03
-5.736999999999999912e-03
-5.576000000000000227e-03
-5.537000000000000255e-03
-5.653000000000000039e-03
-5.755999999999999832e-03
-5.688999999999999613e-03
-5.524000000000000264e-03
-5.479000000000000363e-03
-5.598999999999999810e-03
-5.703999999999999869e-03
-5.627000000000000057e-03
-5.451000000000000116e-03
-5.403999999999999949e-03
-5.529000000000000060e-03
-5.634000000000000119e-03
-5.560999999999999971e-03
-5.389999999999999826e-03
-5.340000000000000129e-03
-5.465000000000000240e-03
-5.572999999999999829e-03
-5.496000000000000017e-03
-5.324999999999999872e-03
-5.279999999999999971e-03
-5.400000000000000286e-03
-5.516000000000000070e-03
-5.446000000000000320e-03
-5.287000000000000033e-03
-5.266999999999999980e-03
-5.403999999999999949e-03
-5.537000000000000255e-03
-5.492999999999999619e-03
-5.355000000000000385e-03
-5.355000000000000385e-03
-5.521999999999999999e-03
-5.666000000000000029e-03
-5.629999999999999588e-03
-5.494999999999999885e-03
-5.490000000000000088e-03
-5.657999999999999835e-03
-5.800999999999999733e-03
-5.756999999999999965e-03
-5.617999999999999730e-03
-5.610000000000000403e-03
-5.749999999999999903e-03
-5.875000000000000014e-03
-5.810000000000000060e-03
-5.657999999999999835e-03
-5.634000000000000119e-03
-5.772000000000000221e-03
-5.885999999999999739e-03
-5.825000000000000316e-03
-5.670999999999999826e-03
-5.645999999999999977e-03
-5.779000000000000282e-03
-5.892999999999999801e-03
-5.826999999999999715e-03
-5.668000000000000295e-03
-5.640000000000000048e-03
-5.781999999999999813e-03
-5.889000000000000137e-03
-5.823000000000000051e-03
-5.664999999999999897e-03
-5.642999999999999579e-03
-5.778000000000000150e-03
-5.897000000000000332e-03
-5.827999999999999847e-03
-5.675999999999999622e-03
-5.648000000000000242e-03
-5.780999999999999681e-03
-5.891999999999999668e-03
-5.820999999999999786e-03
-5.660000000000000100e-03
-5.630999999999999721e-03
-5.771000000000000088e-03
-5.889000000000000137e-03
-5.821999999999999918e-03
-5.658999999999999968e-03
-5.627000000000000057e-03
-5.766000000000000292e-03
-5.885999999999999739e-03
-5.823000000000000051e-03
-5.660000000000000100e-03
-5.632999999999999986e-03
-5.772000000000000221e-03
-5.890000000000000270e-03
-5.825999999999999582e-03
-5.671999999999999958e-03
-5.645999999999999977e-03
-5.785000000000000211e-03
-5.902000000000000128e-03
-5.833999999999999776e-03
-5.681000000000000286e-03
-5.651999999999999906e-03
-5.792000000000000273e-03
-5.912999999999999853e-03
-5.845999999999999634e-03
-5.682999999999999684e-03
-5.658999999999999968e-03
-5.791000000000000140e-03
-5.908000000000000057e-03
-5.839999999999999705e-03
-5.683999999999999816e-03
-5.657999999999999835e-03
-5.798000000000000202e-03
-5.916000000000000252e-03
-5.852999999999999696e-03
-5.692000000000000011e-03
-5.669000000000000428e-03
-5.804000000000000131e-03
-5.924999999999999711e-03
-5.857000000000000227e-03
-5.690999999999999878e-03
-5.663999999999999764e-03
-5.799999999999999600e-03
-5.912999999999999853e-03
-5.852000000000000431e-03
-5.695000000000000409e-03
-5.669000000000000428e-03
-5.805000000000000264e-03
-5.917999999999999650e-03
-5.849000000000000032e-03
-5.690999999999999878e-03
-5.669000000000000428e-03
-5.808999999999999928e-03
-5.924999999999999711e-03
-5.854999999999999961e-03
-5.699000000000000073e-03
-5.674000000000000224e-03
-5.807999999999999795e-03
-5.923000000000000313e-03
-5.856000000000000094e-03
-5.703999999999999869e-03
-5.677999999999999887e-03
-5.812999999999999591e-03
-5.926999999999999977e-03
-5.854999999999999961e-03
-5.697999999999999940e-03
-5.679000000000000020e-03
-5.817000000000000122e-03
-5.925999999999999844e-03
-5.853999999999999829e-03
-5.699000000000000073e-03
-5.677999999999999887e-03
-5.813999999999999724e-03
-5.925999999999999844e-03
-5.854999999999999961e-03
-5.699000000000000073e-03
-5.675000000000000357e-03
-5.813999999999999724e-03
-5.926999999999999977e-03
-5.859999999999999758e-03
-5.703999999999999869e-03
-5.676999999999999755e-03
-5.813999999999999724e-03
-5.925999999999999844e-03
-5.849000000000000032e-03
-5.695000000000000409e-03
-5.670999999999999826e-03
-5.806000000000000397e-03
-5.921000000000000048e-03
-5.841999999999999971e-03
-5.687000000000000215e-03
-5.668000000000000295e-03
-5.802999999999999999e-03
-5.913999999999999986e-03
-5.838999999999999573e-03
-5.682999999999999684e-03
-5.658999999999999968e-03
-5.800999999999999733e-03
-5.910000000000000323e-03
-5.840999999999999838e-03
-5.688000000000000347e-03
-5.668000000000000295e-03
-5.811000000000000193e-03
-5.918999999999999782e-03
-5.839999999999999705e-03
-5.680000000000000153e-03
-5.662999999999999631e-03
-5.806000000000000397e-03
-5.912999999999999853e-03
-5.841999999999999971e-03
-5.674000000000000224e-03
-5.635000000000000252e-03
-5.753000000000000301e-03
-5.844000000000000236e-03
-5.764000000000000026e-03
-5.607000000000000005e-03
-5.573999999999999962e-03
-5.719000000000000125e-03
-5.821999999999999918e-03
-5.735999999999999779e-03
-5.582000000000000156e-03
-5.568000000000000033e-03
-5.715999999999999727e-03
-5.836000000000000042e-03
-5.762999999999999894e-03
-5.610000000000000403e-03
-5.604999999999999739e-03
-5.759000000000000230e-03
-5.865000000000000421e-03
-5.794999999999999804e-03
-5.657999999999999835e-03
-5.655000000000000304e-03
-5.802999999999999999e-03
-5.923000000000000313e-03
-5.857000000000000227e-03
-5.701000000000000338e-03
-5.682000000000000418e-03
-5.826999999999999715e-03
-5.943000000000000366e-03
-5.865000000000000421e-03
-5.714000000000000329e-03
-5.699000000000000073e-03
-5.832999999999999644e-03
-5.947000000000000029e-03
-5.872999999999999748e-03
-5.709999999999999798e-03
-5.692000000000000011e-03
-5.841999999999999971e-03
-5.949000000000000295e-03
-5.870000000000000218e-03
-5.716999999999999860e-03
-5.715999999999999727e-03
-5.886999999999999872e-03
-6.016999999999999779e-03
-5.858000000000000360e-03
-5.536000000000000122e-03
-5.303999999999999687e-03
-5.164000000000000187e-03
-4.937000000000000416e-03
-4.564000000000000348e-03
-4.192999999999999679e-03
-4.250000000000000305e-03
-4.878000000000000391e-03
-5.492000000000000354e-03
-5.769999999999999955e-03
-5.694000000000000276e-03
-5.619999999999999996e-03
-5.714999999999999594e-03
-5.815999999999999989e-03
-5.736999999999999912e-03
-5.599999999999999943e-03
-5.596000000000000280e-03
-5.747000000000000372e-03
-5.864000000000000289e-03
-5.788999999999999875e-03
-5.629000000000000323e-03
-5.615000000000000199e-03
-5.760999999999999628e-03
-5.869000000000000085e-03
-5.786999999999999610e-03
-5.627000000000000057e-03
-5.612999999999999934e-03
-5.753000000000000301e-03
-5.852999999999999696e-03
-5.772000000000000221e-03
-5.619999999999999996e-03
-5.603000000000000341e-03
-5.746000000000000239e-03
-5.850000000000000165e-03
-5.764000000000000026e-03
-5.608000000000000138e-03
-5.588000000000000085e-03
-5.720000000000000258e-03
-5.819000000000000387e-03
-5.735999999999999779e-03
-5.577999999999999625e-03
-5.551999999999999644e-03
-5.696999999999999807e-03
-5.799999999999999600e-03
-5.713000000000000196e-03
-5.551000000000000378e-03
-5.536000000000000122e-03
-5.671999999999999958e-03
-5.767999999999999690e-03
-5.681000000000000286e-03
-5.524000000000000264e-03
-5.504000000000000212e-03
-5.632999999999999986e-03
-5.732000000000000116e-03
-5.640000000000000048e-03
-5.473999999999999699e-03
-5.448999999999999851e-03
-5.585999999999999820e-03
-5.684999999999999949e-03
-5.590000000000000351e-03
-5.427999999999999665e-03
-5.401999999999999684e-03
-5.523000000000000131e-03
-5.610000000000000403e-03
-5.519999999999999733e-03
-5.354000000000000252e-03
-5.323999999999999740e-03
-5.451000000000000116e-03
-5.540999999999999918e-03
-5.442999999999999922e-03
-5.276000000000000308e-03
-5.250000000000000326e-03
-5.379000000000000101e-03
-5.472000000000000301e-03
-5.374999999999999570e-03
-5.209000000000000088e-03
-5.192999999999999700e-03
-5.326000000000000005e-03
-5.427000000000000400e-03
-5.337999999999999863e-03
-5.185000000000000372e-03
-5.172999999999999647e-03
-5.327000000000000138e-03
-5.446999999999999585e-03
-5.383999999999999897e-03
-5.252999999999999857e-03
-5.263999999999999582e-03
-5.445000000000000187e-03
-5.586999999999999952e-03
-5.539999999999999786e-03
-5.413000000000000277e-03
-5.431000000000000064e-03
-5.605999999999999872e-03
-5.730999999999999983e-03
-5.666000000000000029e-03
-5.523000000000000131e-03
-5.527999999999999928e-03
-5.683999999999999816e-03
-5.802999999999999999e-03
-5.727000000000000320e-03
-5.577000000000000360e-03
-5.571999999999999696e-03
-5.716999999999999860e-03
-5.825999999999999582e-03
-5.748999999999999770e-03
-5.594000000000000014e-03
-5.583000000000000289e-03
-5.727999999999999585e-03
-5.828999999999999980e-03
-5.743999999999999974e-03
-5.590000000000000351e-03
-5.581000000000000023e-03
-5.721000000000000391e-03
-5.832000000000000378e-03
-5.747999999999999637e-03
-5.586999999999999952e-03
-5.575000000000000094e-03
-5.723999999999999921e-03
-5.830000000000000113e-03
-5.740999999999999576e-03
-5.584000000000000422e-03
-5.573999999999999962e-03
-5.714999999999999594e-03
-5.818000000000000255e-03
-5.733000000000000249e-03
-5.579999999999999891e-03
-5.571000000000000431e-03
-5.714999999999999594e-03
-5.820999999999999786e-03
-5.736999999999999912e-03
-5.579999999999999891e-03
-5.571000000000000431e-03
-5.715999999999999727e-03
-5.825000000000000316e-03
-5.745000000000000107e-03
-5.588000000000000085e-03
-5.577999999999999625e-03
-5.721999999999999656e-03
-5.831000000000000245e-03
-5.751000000000000036e-03
-5.594000000000000014e-03
-5.581000000000000023e-03
-5.728999999999999718e-03
-5.838999999999999573e-03
-5.753999999999999566e-03
-5.594000000000000014e-03
-5.584999999999999687e-03
-5.733000000000000249e-03
-5.838999999999999573e-03
-5.752000000000000168e-03
-5.599999999999999943e-03
-5.590000000000000351e-03
-5.729999999999999850e-03
-5.832000000000000378e-03
-5.747000000000000372e-03
-5.590000000000000351e-03
-5.581000000000000023e-03
-5.728999999999999718e-03
-5.838999999999999573e-03
-5.756999999999999965e-03
-5.601000000000000076e-03
-5.588000000000000085e-03
-5.732000000000000116e-03
-5.838000000000000307e-03
-5.756999999999999965e-03
-5.599999999999999943e-03
-5.594000000000000014e-03
-5.740000000000000310e-03
-5.844000000000000236e-03
-5.755999999999999832e-03
-5.602000000000000209e-03
-5.590000000000000351e-03
-5.734000000000000381e-03
-5.843000000000000103e-03
-5.764000000000000026e-03
-5.604999999999999739e-03
-5.592999999999999881e-03
-5.741999999999999708e-03
-5.846999999999999767e-03
-5.765000000000000159e-03
-5.610999999999999668e-03
-5.598999999999999810e-03
-5.747999999999999637e-03
-5.852000000000000431e-03
-5.764000000000000026e-03
-5.605999999999999872e-03
-5.595000000000000147e-03
-5.747999999999999637e-03
-5.853999999999999829e-03
-5.759000000000000230e-03
-5.599999999999999943e-03
-5.590999999999999616e-03
-5.738000000000000045e-03
-5.844000000000000236e-03
-5.756999999999999965e-03
-5.605999999999999872e-03
-5.594000000000000014e-03
-5.733000000000000249e-03
-5.841999999999999971e-03
-5.754999999999999699e-03
-5.603999999999999607e-03
-5.594000000000000014e-03
-5.734000000000000381e-03
-5.836000000000000042e-03
-5.748999999999999770e-03
-5.601000000000000076e-03
-5.589000000000000218e-03
-5.734999999999999647e-03
-5.840999999999999838e-03
-5.749999999999999903e-03
-5.594000000000000014e-03
-5.586999999999999952e-03
-5.734999999999999647e-03
-5.838999999999999573e-03
-5.747999999999999637e-03
-5.588000000000000085e-03
-5.579999999999999891e-03
-5.732000000000000116e-03
-5.837000000000000174e-03
-5.747000000000000372e-03
-5.592999999999999881e-03
-5.584000000000000422e-03
-5.734000000000000381e-03
-5.837000000000000174e-03
-5.747999999999999637e-03
-5.591999999999999749e-03
-5.584999999999999687e-03
-5.727999999999999585e-03
-5.834999999999999909e-03
-5.747999999999999637e-03
-5.592999999999999881e-03
-5.583000000000000289e-03
-5.729999999999999850e-03
-5.833999999999999776e-03
-5.740000000000000310e-03
-5.577999999999999625e-03
-5.557000000000000307e-03
-5.684999999999999949e-03
-5.774999999999999752e-03
-5.670999999999999826e-03
-5.511000000000000273e-03
-5.500999999999999814e-03
-5.645999999999999977e-03
-5.742999999999999841e-03
-5.644999999999999844e-03
-5.479000000000000363e-03
-5.477000000000000098e-03
-5.628000000000000190e-03
-5.745000000000000107e-03
-5.662999999999999631e-03
-5.512999999999999672e-03
-5.517000000000000202e-03
-5.682000000000000418e-03
-5.785000000000000211e-03
-5.696999999999999807e-03
-5.551000000000000378e-03
-5.563000000000000236e-03
-5.721000000000000391e-03
-5.832999999999999644e-03
-5.752000000000000168e-03
-5.603999999999999607e-03
-5.608000000000000138e-03
-5.753000000000000301e-03
-5.858000000000000360e-03
-5.773000000000000353e-03
-5.619999999999999996e-03
-5.614000000000000067e-03
-5.758000000000000097e-03
-5.860999999999999890e-03
-5.773999999999999619e-03
-5.619999999999999996e-03
-5.615000000000000199e-03
-5.761999999999999761e-03
-5.860999999999999890e-03
-5.774999999999999752e-03
-5.623999999999999659e-03
-5.627000000000000057e-03
-5.799000000000000335e-03
-5.936999999999999569e-03
-5.832000000000000378e-03
-5.544000000000000317e-03
-5.361000000000000314e-03
-5.263000000000000317e-03
-5.050999999999999934e-03
-4.623000000000000373e-03
-4.186999999999999750e-03
-4.040000000000000188e-03
-4.486999999999999669e-03
-5.111000000000000092e-03
-5.492999999999999619e-03
-5.604999999999999739e-03
-5.597999999999999678e-03
-5.680000000000000153e-03
-5.759000000000000230e-03
-5.650999999999999773e-03
-5.499999999999999681e-03
-5.512000000000000406e-03
-5.673000000000000091e-03
-5.785000000000000211e-03
-5.695999999999999674e-03
-5.544000000000000317e-03
-5.542000000000000051e-03
-5.695000000000000409e-03
-5.799999999999999600e-03
-5.707000000000000267e-03
-5.549000000000000113e-03
-5.543000000000000184e-03
-5.689999999999999745e-03
-5.786000000000000344e-03
-5.693000000000000144e-03
-5.539999999999999786e-03
-5.537000000000000255e-03
-5.682000000000000418e-03
-5.780000000000000415e-03
-5.683999999999999816e-03
-5.523000000000000131e-03
-5.518999999999999601e-03
-5.668000000000000295e-03
-5.765000000000000159e-03
-5.668000000000000295e-03
-5.507999999999999875e-03
-5.501999999999999946e-03
-5.649000000000000375e-03
-5.740999999999999576e-03
-5.648000000000000242e-03
-5.493999999999999752e-03
-5.485000000000000292e-03
-5.631999999999999854e-03
-5.727000000000000320e-03
-5.627000000000000057e-03
-5.459999999999999576e-03
-5.455999999999999912e-03
-5.594000000000000014e-03
-5.687000000000000215e-03
-5.584000000000000422e-03
-5.420000000000000338e-03
-5.414999999999999675e-03
-5.553999999999999909e-03
-5.642000000000000313e-03
-5.536000000000000122e-03
-5.366000000000000110e-03
-5.355000000000000385e-03
-5.491000000000000221e-03
-5.573999999999999962e-03
-5.464000000000000107e-03
-5.297999999999999758e-03
-5.285999999999999900e-03
-5.418000000000000073e-03
-5.500999999999999814e-03
-5.394999999999999622e-03
-5.228000000000000008e-03
-5.215000000000000017e-03
-5.348999999999999588e-03
-5.433000000000000329e-03
-5.326000000000000005e-03
-5.161999999999999922e-03
-5.152999999999999595e-03
-5.290999999999999696e-03
-5.383999999999999897e-03
-5.285999999999999900e-03
-5.127999999999999746e-03
-5.126000000000000348e-03
-5.281000000000000104e-03
-5.388000000000000428e-03
-5.310999999999999749e-03
-5.183000000000000107e-03
-5.205999999999999690e-03
-5.381000000000000366e-03
-5.511000000000000273e-03
-5.452000000000000249e-03
-5.328000000000000271e-03
-5.356999999999999783e-03
-5.537000000000000255e-03
-5.658999999999999968e-03
-5.590999999999999616e-03
-5.458000000000000178e-03
-5.474999999999999832e-03
-5.636999999999999650e-03
-5.747000000000000372e-03
-5.658999999999999968e-03
-5.518999999999999601e-03
-5.529000000000000060e-03
-5.680000000000000153e-03
-5.779000000000000282e-03
-5.688000000000000347e-03
-5.540999999999999918e-03
-5.539999999999999786e-03
-5.689999999999999745e-03
-5.791000000000000140e-03
-5.692000000000000011e-03
-5.538999999999999653e-03
-5.544999999999999582e-03
-5.694000000000000276e-03
-5.788999999999999875e-03
-5.689999999999999745e-03
-5.538999999999999653e-03
-5.540999999999999918e-03
-5.688999999999999613e-03
-5.784000000000000079e-03
-5.689999999999999745e-03
-5.536000000000000122e-03
-5.542000000000000051e-03
-5.692000000000000011e-03
-5.785000000000000211e-03
-5.690999999999999878e-03
-5.538999999999999653e-03
-5.538999999999999653e-03
-5.688999999999999613e-03
-5.787999999999999742e-03
-5.694000000000000276e-03
-5.545999999999999715e-03
-5.545999999999999715e-03
-5.693000000000000144e-03
-5.786000000000000344e-03
-5.697999999999999940e-03
-5.551999999999999644e-03
-5.552999999999999776e-03
-5.697999999999999940e-03
-5.790000000000000008e-03
-5.694000000000000276e-03
-5.544000000000000317e-03
-5.550000000000000246e-03
-5.701999999999999603e-03
-5.800999999999999733e-03
-5.708999999999999665e-03
-5.556000000000000175e-03
-5.558999999999999705e-03
-5.714000000000000329e-03
-5.810000000000000060e-03
-5.716999999999999860e-03
-5.560999999999999971e-03
-5.562000000000000104e-03
-5.717999999999999992e-03
-5.815999999999999989e-03
-5.717999999999999992e-03
-5.572999999999999829e-03
-5.581000000000000023e-03
-5.735999999999999779e-03
-5.832999999999999644e-03
-5.734999999999999647e-03
-5.586999999999999952e-03
-5.590000000000000351e-03
-5.740000000000000310e-03
-5.840999999999999838e-03
-5.739000000000000178e-03
-5.585999999999999820e-03
-5.590999999999999616e-03
-5.742999999999999841e-03
-5.839999999999999705e-03
-5.740000000000000310e-03
-5.584999999999999687e-03
-5.589000000000000218e-03
-5.736999999999999912e-03
-5.832999999999999644e-03
-5.734999999999999647e-03
-5.584000000000000422e-03
-5.595000000000000147e-03
-5.746000000000000239e-03
-5.838000000000000307e-03
-5.735999999999999779e-03
-5.586999999999999952e-03
-5.599999999999999943e-03
-5.753000000000000301e-03
-5.843000000000000103e-03
-5.743999999999999974e-03
-5.588000000000000085e-03
-5.597000000000000412e-03
-5.748999999999999770e-03
-5.834999999999999909e-03
-5.730999999999999983e-03
-5.585999999999999820e-03
-5.590999999999999616e-03
-5.742999999999999841e-03
-5.838999999999999573e-03
-5.740999999999999576e-03
-5.588000000000000085e-03
-5.597000000000000412e-03
-5.747999999999999637e-03
-5.838000000000000307e-03
-5.734999999999999647e-03
-5.581000000000000023e-03
-5.594000000000000014e-03
-5.747999999999999637e-03
-5.836000000000000042e-03
-5.739000000000000178e-03
-5.598999999999999810e-03
-5.607000000000000005e-03
-5.754999999999999699e-03
-5.843000000000000103e-03
-5.740999999999999576e-03
-5.597999999999999678e-03
-5.605999999999999872e-03
-5.761999999999999761e-03
-5.862000000000000023e-03
-5.760999999999999628e-03
-5.610000000000000403e-03
-5.615000000000000199e-03
-5.760000000000000363e-03
-5.847999999999999900e-03
-5.751000000000000036e-03
-5.603999999999999607e-03
-5.617999999999999730e-03
-5.771000000000000088e-03
-5.865000000000000421e-03
-5.764000000000000026e-03
-5.611999999999999801e-03
-5.616000000000000332e-03
-5.762999999999999894e-03
-5.852999999999999696e-03
-5.747999999999999637e-03
-5.598999999999999810e-03
-5.614000000000000067e-03
-5.764000000000000026e-03
-5.844000000000000236e-03
-5.734000000000000381e-03
-5.576000000000000227e-03
-5.569000000000000165e-03
-5.700000000000000205e-03
-5.773999999999999619e-03
-5.676999999999999755e-03
-5.529000000000000060e-03
-5.531000000000000326e-03
-5.674000000000000224e-03
-5.760000000000000363e-03
-5.649000000000000375e-03
-5.493999999999999752e-03
-5.513999999999999804e-03
-5.676999999999999755e-03
-5.780999999999999681e-03
-5.696999999999999807e-03
-5.551999999999999644e-03
-5.564000000000000369e-03
-5.719000000000000125e-03
-5.824000000000000184e-03
-5.753000000000000301e-03
-5.616000000000000332e-03
-5.634000000000000119e-03
-5.794999999999999804e-03
-5.893999999999999934e-03
-5.799000000000000335e-03
-5.651999999999999906e-03
-5.663999999999999764e-03
-5.817000000000000122e-03
-5.910999999999999588e-03
-5.808999999999999928e-03
-5.658999999999999968e-03
-5.674000000000000224e-03
-5.821999999999999918e-03
-5.910999999999999588e-03
-5.804000000000000131e-03
-5.661000000000000233e-03
-5.675999999999999622e-03
-5.827999999999999847e-03
-5.912999999999999853e-03
-5.808999999999999928e-03
-5.667000000000000162e-03
-5.713000000000000196e-03
-5.909000000000000190e-03
-6.007000000000000187e-03
-5.801999999999999866e-03
-5.492999999999999619e-03
-5.276999999999999573e-03
-5.120999999999999684e-03
-4.843000000000000083e-03
-4.414000000000000389e-03
-4.041999999999999586e-03
-4.183000000000000086e-03
-4.831000000000000225e-03
-5.426000000000000267e-03
-5.734000000000000381e-03
-5.719000000000000125e-03
-5.664999999999999897e-03
-5.761999999999999761e-03
-5.836000000000000042e-03
-5.706000000000000134e-03
-5.550000000000000246e-03
-5.583000000000000289e-03
-5.740999999999999576e-03
-5.837000000000000174e-03
-5.740999999999999576e-03
-5.597999999999999678e-03
-5.614000000000000067e-03
-5.760000000000000363e-03
-5.843000000000000103e-03
-5.736999999999999912e-03
-5.589000000000000218e-03
-5.603999999999999607e-03
-5.760999999999999628e-03
-5.853999999999999829e-03
-5.755999999999999832e-03
-5.607000000000000005e-03
-5.617999999999999730e-03
-5.769999999999999955e-03
-5.845000000000000369e-03
-5.739000000000000178e-03
-5.597999999999999678e-03
-5.610999999999999668e-03
-5.753000000000000301e-03
-5.830000000000000113e-03
-5.725000000000000054e-03
-5.562000000000000104e-03
-5.568000000000000033e-03
-5.721999999999999656e-03
-5.818000000000000255e-03
-5.728999999999999718e-03
-5.575000000000000094e-03
-5.578999999999999758e-03
-5.729999999999999850e-03
-5.804000000000000131e-03
-5.687000000000000215e-03
-5.531999999999999591e-03
-5.552999999999999776e-03
-5.696999999999999807e-03
-5.761999999999999761e-03
-5.649999999999999641e-03
-5.505999999999999610e-03
-5.496000000000000017e-03
-5.637999999999999783e-03
-5.714000000000000329e-03
-5.607000000000000005e-03
-5.459000000000000311e-03
-5.470000000000000036e-03
-5.603000000000000341e-03
-5.669999999999999693e-03
-5.533999999999999857e-03
-5.370999999999999906e-03
-5.386000000000000162e-03
-5.534999999999999989e-03
-5.590000000000000351e-03
-5.479000000000000363e-03
-5.326000000000000005e-03
-5.327000000000000138e-03
-5.471000000000000169e-03
-5.538000000000000388e-03
-5.412000000000000144e-03
-5.249000000000000193e-03
-5.259999999999999919e-03
-5.407000000000000348e-03
-5.504000000000000212e-03
-5.394000000000000357e-03
-5.233999999999999937e-03
-5.263999999999999582e-03
-5.427000000000000400e-03
-5.532999999999999724e-03
-5.440000000000000391e-03
-5.309999999999999616e-03
-5.362999999999999712e-03
-5.564999999999999634e-03
-5.677999999999999887e-03
-5.596000000000000280e-03
-5.486000000000000425e-03
-5.523000000000000131e-03
-5.705000000000000002e-03
-5.808999999999999928e-03
-5.719000000000000125e-03
-5.582000000000000156e-03
-5.602000000000000209e-03
-5.768999999999999823e-03
-5.858000000000000360e-03
-5.759000000000000230e-03
-5.645999999999999977e-03
-5.677999999999999887e-03
-5.837000000000000174e-03
-5.906999999999999924e-03
-5.799000000000000335e-03
-5.654000000000000171e-03
-5.677999999999999887e-03
-5.831000000000000245e-03
-5.917999999999999650e-03
-5.814999999999999857e-03
-5.655000000000000304e-03
-5.657999999999999835e-03
-5.812999999999999591e-03
-5.892999999999999801e-03
-5.793000000000000406e-03
-5.645999999999999977e-03
-5.668000000000000295e-03
-5.818000000000000255e-03
-5.893999999999999934e-03
-5.795999999999999937e-03
-5.635000000000000252e-03
-5.640000000000000048e-03
-5.794999999999999804e-03
-5.865999999999999687e-03
-5.773000000000000353e-03
-5.636000000000000384e-03
-5.657999999999999835e-03
-5.799000000000000335e-03
-5.889000000000000137e-03
-5.786999999999999610e-03
-5.637999999999999783e-03
-5.664999999999999897e-03
-5.812999999999999591e-03
-5.883000000000000208e-03
-5.773000000000000353e-03
-5.635000000000000252e-03
-5.654000000000000171e-03
-5.812000000000000326e-03
-5.895000000000000066e-03
-5.788999999999999875e-03
-5.647000000000000110e-03
-5.669999999999999693e-03
-5.826999999999999715e-03
-5.917999999999999650e-03
-5.799000000000000335e-03
-5.643999999999999712e-03
-5.656999999999999702e-03
-5.799999999999999600e-03
-5.885999999999999739e-03
-5.769999999999999955e-03
-5.634000000000000119e-03
-5.654000000000000171e-03
-5.806999999999999662e-03
-5.891999999999999668e-03
-5.777000000000000017e-03
-5.645999999999999977e-03
-5.656999999999999702e-03
-5.818000000000000255e-03
-5.873999999999999881e-03
-5.767999999999999690e-03
-5.643999999999999712e-03
-5.661000000000000233e-03
-5.815999999999999989e-03
-5.888000000000000005e-03
-5.764000000000000026e-03
-5.625999999999999925e-03
-5.654000000000000171e-03
-5.813999999999999724e-03
-5.885999999999999739e-03
-5.759000000000000230e-03
-5.610000000000000403e-03
-5.636999999999999650e-03
-5.818000000000000255e-03
-5.904000000000000394e-03
-5.765000000000000159e-03
-5.636999999999999650e-03
-5.669000000000000428e-03
-5.813999999999999724e-03
-5.882000000000000076e-03
-5.773000000000000353e-03
-5.634000000000000119e-03
-5.651999999999999906e-03
-5.806999999999999662e-03
-5.871999999999999616e-03
-5.734000000000000381e-03
-5.597000000000000412e-03
-5.647000000000000110e-03
-5.824000000000000184e-03
-5.892999999999999801e-03
-5.759000000000000230e-03
-5.609000000000000270e-03
-5.615000000000000199e-03
-5.752000000000000168e-03
-5.833999999999999776e-03
-5.721000000000000391e-03
-5.556000000000000175e-03
-5.551000000000000378e-03
-5.692000000000000011e-03
-5.753999999999999566e-03
-5.642000000000000313e-03
-5.486000000000000425e-03
-5.484000000000000159e-03
-5.629000000000000323e-03
-5.684999999999999949e-03
-5.579999999999999891e-03
-5.433000000000000329e-03
-5.462999999999999974e-03
-5.656999999999999702e-03
-5.759000000000000230e-03
-5.674000000000000224e-03
-5.512999999999999672e-03
-5.537000000000000255e-03
-5.723999999999999921e-03
-5.830000000000000113e-03
-5.717999999999999992e-03
-5.564999999999999634e-03
-5.584999999999999687e-03
-5.747999999999999637e-03
-5.847999999999999900e-03
-5.728999999999999718e-03
-5.576000000000000227e-03
-5.634000000000000119e-03
-5.813999999999999724e-03
-5.897999999999999597e-03
-5.759000000000000230e-03
-5.610000000000000403e-03
-5.648000000000000242e-03
-5.787999999999999742e-03
-5.838999999999999573e-03
-5.715999999999999727e-03
-5.595000000000000147e-03
-5.618999999999999863e-03
-5.780999999999999681e-03
-5.836000000000000042e-03
-5.713000000000000196e-03
-5.590000000000000351e-03
-5.636000000000000384e-03
-5.834999999999999909e-03
-5.888000000000000005e-03
-5.629999999999999588e-03
-5.284999999999999767e-03
-5.073000000000000252e-03
-4.943000000000000345e-03
-4.703999999999999848e-03
-4.340000000000000108e-03
-4.024999999999999932e-03
-4.229000000000000120e-03
-4.889000000000000117e-03
-5.441999999999999789e-03
-5.623000000000000394e-03
-5.564999999999999634e-03
-5.545999999999999715e-03
-5.658999999999999968e-03
-5.726000000000000187e-03
-5.596000000000000280e-03
-5.446000000000000320e-03
-5.492999999999999619e-03
-5.647000000000000110e-03
-5.705000000000000002e-03
-5.598999999999999810e-03
-5.470000000000000036e-03
-5.509000000000000008e-03
-5.676999999999999755e-03
-5.747999999999999637e-03
-5.630999999999999721e-03
-5.477000000000000098e-03
-5.484000000000000159e-03
-5.648000000000000242e-03
-5.725000000000000054e-03
-5.621000000000000128e-03
-5.492999999999999619e-03
-5.506999999999999743e-03
-5.643999999999999712e-03
-5.694000000000000276e-03
-5.590999999999999616e-03
-5.465000000000000240e-03
-5.499000000000000415e-03
-5.629999999999999588e-03
-5.726000000000000187e-03
-5.615000000000000199e-03
-5.458000000000000178e-03
-5.492000000000000354e-03
-5.655999999999999570e-03
-5.741999999999999708e-03
-5.577000000000000360e-03
-5.420000000000000338e-03
-5.439000000000000258e-03
-5.599999999999999943e-03
-5.675999999999999622e-03
-5.552999999999999776e-03
-5.406000000000000215e-03
-5.440000000000000391e-03
-5.559999999999999838e-03
-5.608000000000000138e-03
-5.497000000000000150e-03
-5.346000000000000058e-03
-5.381000000000000366e-03
-5.525999999999999662e-03
-5.551999999999999644e-03
-5.407999999999999613e-03
-5.269000000000000246e-03
-5.316000000000000413e-03
-5.479999999999999628e-03
-5.546999999999999847e-03
-5.408999999999999746e-03
-5.257000000000000388e-03
-5.287000000000000033e-03
-5.408999999999999746e-03
-5.467999999999999770e-03
-5.348999999999999588e-03
-5.172000000000000382e-03
-5.153999999999999727e-03
-5.333000000000000067e-03
-5.428999999999999798e-03
-5.276000000000000308e-03
-5.108999999999999826e-03
-5.146999999999999666e-03
-5.331999999999999934e-03
-5.374999999999999570e-03
-5.250999999999999591e-03
-5.118000000000000153e-03
-5.180999999999999842e-03
-5.324999999999999872e-03
-5.441999999999999789e-03
-5.364999999999999977e-03
-5.240999999999999999e-03
-5.252999999999999857e-03
-5.436999999999999993e-03
-5.547999999999999980e-03
-5.449999999999999983e-03
-5.309999999999999616e-03
-5.336999999999999730e-03
-5.546999999999999847e-03
-5.656999999999999702e-03
-5.560999999999999971e-03
-5.418000000000000073e-03
-5.446999999999999585e-03
-5.635000000000000252e-03
-5.705000000000000002e-03
-5.571000000000000431e-03
-5.441999999999999789e-03
-5.472999999999999567e-03
-5.643999999999999712e-03
-5.726000000000000187e-03
-5.603999999999999607e-03
-5.451000000000000116e-03
-5.477000000000000098e-03
-5.643999999999999712e-03
-5.693000000000000144e-03
-5.577000000000000360e-03
-5.433999999999999594e-03
-5.472999999999999567e-03
-5.649999999999999641e-03
-5.714000000000000329e-03
-5.602000000000000209e-03
-5.453999999999999647e-03
-5.490000000000000088e-03
-5.655000000000000304e-03
-5.730999999999999983e-03
-5.595000000000000147e-03
-5.446999999999999585e-03
-5.471000000000000169e-03
-5.643999999999999712e-03
-5.710999999999999931e-03
-5.571000000000000431e-03
-5.435999999999999860e-03
-5.486000000000000425e-03
-5.649999999999999641e-03
-5.709999999999999798e-03
-5.576000000000000227e-03
-5.427000000000000400e-03
-5.479000000000000363e-03
-5.645999999999999977e-03
-5.707000000000000267e-03
-5.586999999999999952e-03
-5.434999999999999727e-03
-5.459999999999999576e-03
-5.603999999999999607e-03
-5.695999999999999674e-03
-5.596000000000000280e-03
-5.441999999999999789e-03
-5.454999999999999780e-03
-5.596000000000000280e-03
-5.697999999999999940e-03
-5.584999999999999687e-03
-5.447999999999999718e-03
-5.472000000000000301e-03
-5.608000000000000138e-03
-5.684999999999999949e-03
-5.549000000000000113e-03
-5.390999999999999959e-03
-5.413000000000000277e-03
-5.586999999999999952e-03
-5.687000000000000215e-03
-5.557999999999999573e-03
-5.416999999999999940e-03
-5.474999999999999832e-03
-5.630999999999999721e-03
-5.673000000000000091e-03
-5.544999999999999582e-03
-5.398000000000000020e-03
-5.407999999999999613e-03
-5.569000000000000165e-03
-5.687000000000000215e-03
-5.579999999999999891e-03
-5.412000000000000144e-03
-5.438000000000000125e-03
-5.610999999999999668e-03
-5.653000000000000039e-03
-5.539999999999999786e-03
-5.424000000000000002e-03
-5.452000000000000249e-03
-5.610000000000000403e-03
-5.669999999999999693e-03
-5.542000000000000051e-03
-5.405000000000000082e-03
-5.415999999999999807e-03
-5.555000000000000042e-03
-5.611999999999999801e-03
-5.491000000000000221e-03
-5.350999999999999854e-03
-5.380000000000000233e-03
-5.538999999999999653e-03
-5.579999999999999891e-03
-5.427000000000000400e-03
-5.256000000000000255e-03
-5.272999999999999909e-03
-5.426000000000000267e-03
-5.487999999999999823e-03
-5.366000000000000110e-03
-5.253999999999999990e-03
-5.316000000000000413e-03
-5.474999999999999832e-03
-5.570000000000000298e-03
-5.486999999999999690e-03
-5.382999999999999764e-03
-5.454999999999999780e-03
-5.641000000000000181e-03
-5.721000000000000391e-03
-5.598999999999999810e-03
-5.464000000000000107e-03
-5.516000000000000070e-03
-5.688000000000000347e-03
-5.766000000000000292e-03
-5.630999999999999721e-03
-5.498000000000000283e-03
-5.546999999999999847e-03
-5.719000000000000125e-03
-5.782999999999999946e-03
-5.649999999999999641e-03
-5.512999999999999672e-03
-5.549000000000000113e-03
-5.701000000000000338e-03
-5.764000000000000026e-03
-5.653000000000000039e-03
-5.520999999999999866e-03
-5.565999999999999767e-03
-5.732000000000000116e-03
-5.786999999999999610e-03
-5.687000000000000215e-03
-5.601000000000000076e-03
-5.628000000000000190e-03
-5.642000000000000313e-03
-5.519999999999999733e-03
-5.158000000000000258e-03
-4.719000000000000104e-03
-4.414999999999999654e-03
-4.305999999999999932e-03
-4.224000000000000324e-03
-4.300000000000000003e-03
-4.651999999999999885e-03
-5.154999999999999860e-03
-5.644999999999999844e-03
-5.802999999999999999e-03
-5.636000000000000384e-03
-5.448999999999999851e-03
-5.462999999999999974e-03
-5.609000000000000270e-03
-5.679000000000000020e-03
-5.579999999999999891e-03
-5.454999999999999780e-03
-5.484000000000000159e-03
-5.645999999999999977e-03
-5.723999999999999921e-03
-5.594000000000000014e-03
-5.455999999999999912e-03
-5.487999999999999823e-03
-5.643999999999999712e-03
-5.700000000000000205e-03
-5.575000000000000094e-03
-5.457000000000000045e-03
-5.494999999999999885e-03
-5.651999999999999906e-03
-5.714999999999999594e-03
-5.586999999999999952e-03
-5.438000000000000125e-03
-5.487999999999999823e-03
-5.642999999999999579e-03
-5.694000000000000276e-03
-5.571999999999999696e-03
-5.438000000000000125e-03
-5.472000000000000301e-03
-5.615000000000000199e-03
-5.680000000000000153e-03
-5.563000000000000236e-03
-5.435999999999999860e-03
-5.468999999999999903e-03
-5.623000000000000394e-03
-5.669000000000000428e-03
-5.532999999999999724e-03
-5.401000000000000419e-03
-5.438000000000000125e-03
-5.584999999999999687e-03
-5.657999999999999835e-03
-5.520999999999999866e-03
-5.374000000000000304e-03
-5.403999999999999949e-03
-5.547999999999999980e-03
-5.610000000000000403e-03
-5.468999999999999903e-03
-5.317999999999999811e-03
-5.354000000000000252e-03
-5.505999999999999610e-03
-5.564000000000000369e-03
-5.424000000000000002e-03
-5.283999999999999635e-03
-5.321000000000000209e-03
-5.460999999999999709e-03
-5.513999999999999804e-03
-5.375999999999999703e-03
-5.223000000000000212e-03
-5.256000000000000255e-03
-5.402999999999999817e-03
-5.453000000000000382e-03
-5.316999999999999678e-03
-5.166999999999999718e-03
-5.202000000000000027e-03
-5.361999999999999579e-03
-5.420000000000000338e-03
-5.283000000000000369e-03
-5.143000000000000002e-03
-5.181999999999999974e-03
-5.337999999999999863e-03
-5.398000000000000020e-03
-5.278999999999999838e-03
-5.163000000000000055e-03
-5.220999999999999946e-03
-5.402999999999999817e-03
-5.503000000000000079e-03
-5.414000000000000409e-03
-5.303000000000000422e-03
-5.360000000000000181e-03
-5.542000000000000051e-03
-5.628000000000000190e-03
-5.520999999999999866e-03
-5.409999999999999878e-03
-5.472000000000000301e-03
-5.643999999999999712e-03
-5.720000000000000258e-03
-5.603999999999999607e-03
-5.472000000000000301e-03
-5.512999999999999672e-03
-5.673000000000000091e-03
-5.746000000000000239e-03
-5.624999999999999792e-03
-5.500999999999999814e-03
-5.550000000000000246e-03
-5.703999999999999869e-03
-5.759000000000000230e-03
-5.628000000000000190e-03
-5.492999999999999619e-03
-5.530000000000000193e-03
-5.695999999999999674e-03
-5.765000000000000159e-03
-5.640000000000000048e-03
-5.507999999999999875e-03
-5.538999999999999653e-03
-5.688000000000000347e-03
-5.747000000000000372e-03
-5.622000000000000261e-03
-5.478000000000000230e-03
-5.505000000000000344e-03
-5.669999999999999693e-03
-5.746000000000000239e-03
-5.619999999999999996e-03
-5.481999999999999894e-03
-5.517000000000000202e-03
-5.675000000000000357e-03
-5.740999999999999576e-03
-5.616000000000000332e-03
-5.478000000000000230e-03
-5.516000000000000070e-03
-5.670999999999999826e-03
-5.738000000000000045e-03
-5.604999999999999739e-03
-5.468999999999999903e-03
-5.517000000000000202e-03
-5.676999999999999755e-03
-5.734000000000000381e-03
-5.612999999999999934e-03
-5.477000000000000098e-03
-5.518000000000000335e-03
-5.677999999999999887e-03
-5.736999999999999912e-03
-5.624999999999999792e-03
-5.499000000000000415e-03
-5.538000000000000388e-03
-5.683999999999999816e-03
-5.740999999999999576e-03
-5.612999999999999934e-03
-5.481999999999999894e-03
-5.526999999999999795e-03
-5.673000000000000091e-03
-5.739000000000000178e-03
-5.616999999999999597e-03
-5.486999999999999690e-03
-5.530000000000000193e-03
-5.692000000000000011e-03
-5.743999999999999974e-03
-5.607000000000000005e-03
-5.477000000000000098e-03
-5.530000000000000193e-03
-5.695999999999999674e-03
-5.755999999999999832e-03
-5.623999999999999659e-03
-5.494999999999999885e-03
-5.533999999999999857e-03
-5.693000000000000144e-03
-5.758000000000000097e-03
-5.638999999999999915e-03
-5.505000000000000344e-03
-5.543000000000000184e-03
-5.706000000000000134e-03
-5.765000000000000159e-03
-5.637999999999999783e-03
-5.509000000000000008e-03
-5.549000000000000113e-03
-5.703999999999999869e-03
-5.762999999999999894e-03
-5.627000000000000057e-03
-5.504000000000000212e-03
-5.555000000000000042e-03
-5.712000000000000063e-03
-5.760000000000000363e-03
-5.624999999999999792e-03
-5.503000000000000079e-03
-5.564999999999999634e-03
-5.721000000000000391e-03
-5.784000000000000079e-03
-5.649000000000000375e-03
-5.507999999999999875e-03
-5.537000000000000255e-03
-5.668000000000000295e-03
-5.705000000000000002e-03
-5.572999999999999829e-03
-5.428999999999999798e-03
-5.464000000000000107e-03
-5.607000000000000005e-03
-5.634000000000000119e-03
-5.471000000000000169e-03
-5.327000000000000138e-03
-5.368000000000000375e-03
-5.531000000000000326e-03
-5.579999999999999891e-03
-5.454999999999999780e-03
-5.336999999999999730e-03
-5.386000000000000162e-03
-5.553999999999999909e-03
-5.629999999999999588e-03
-5.533999999999999857e-03
-5.446000000000000320e-03
-5.531999999999999591e-03
-5.715999999999999727e-03
-5.778000000000000150e-03
-5.654000000000000171e-03
-5.525000000000000397e-03
-5.581000000000000023e-03
-5.745000000000000107e-03
-5.799000000000000335e-03
-5.669999999999999693e-03
-5.540999999999999918e-03
-5.592999999999999881e-03
-5.758000000000000097e-03
-5.808999999999999928e-03
-5.677999999999999887e-03
-5.551000000000000378e-03
-5.591999999999999749e-03
-5.746000000000000239e-03
-5.799000000000000335e-03
-5.666000000000000029e-03
-5.538000000000000388e-03
-5.581000000000000023e-03
-5.746000000000000239e-03
-5.812000000000000326e-03
-5.714999999999999594e-03
-5.617999999999999730e-03
-5.612999999999999934e-03
-5.611999999999999801e-03
-5.459999999999999576e-03
-5.055999999999999731e-03
-4.604999999999999719e-03
-4.341000000000000240e-03
-4.250000000000000305e-03
-4.236000000000000182e-03
-4.510000000000000120e-03
-4.916000000000000231e-03
-5.387000000000000295e-03
-5.715999999999999727e-03
-5.730999999999999983e-03
-5.544000000000000317e-03
-5.392000000000000091e-03
-5.446999999999999585e-03
-5.616000000000000332e-03
-5.688999999999999613e-03
-5.568000000000000033e-03
-5.444000000000000054e-03
-5.496000000000000017e-03
-5.657999999999999835e-03
-5.714999999999999594e-03
-5.584000000000000422e-03
-5.454999999999999780e-03
-5.500999999999999814e-03
-5.662999999999999631e-03
-5.717999999999999992e-03
-5.588000000000000085e-03
-5.457000000000000045e-03
-5.501999999999999946e-03
-5.656999999999999702e-03
-5.708999999999999665e-03
-5.581000000000000023e-03
-5.446999999999999585e-03
-5.494999999999999885e-03
-5.644999999999999844e-03
-5.693000000000000144e-03
-5.557999999999999573e-03
-5.426000000000000267e-03
-5.462999999999999974e-03
-5.616000000000000332e-03
-5.669999999999999693e-03
-5.533999999999999857e-03
-5.399000000000000153e-03
-5.440000000000000391e-03
-5.596000000000000280e-03
-5.643999999999999712e-03
-5.509000000000000008e-03
-5.374000000000000304e-03
-5.420000000000000338e-03
-5.570000000000000298e-03
-5.615000000000000199e-03
-5.477000000000000098e-03
-5.342999999999999659e-03
-5.375999999999999703e-03
-5.526999999999999795e-03
-5.569000000000000165e-03
-5.425000000000000135e-03
-5.287000000000000033e-03
-5.316999999999999678e-03
-5.466000000000000372e-03
-5.509000000000000008e-03
-5.364999999999999977e-03
-5.215000000000000017e-03
-5.250999999999999591e-03
-5.396999999999999888e-03
-5.435999999999999860e-03
-5.288000000000000166e-03
-5.141999999999999869e-03
-5.172999999999999647e-03
-5.314000000000000147e-03
-5.357999999999999916e-03
-5.211999999999999619e-03
-5.074000000000000385e-03
-5.120000000000000419e-03
-5.257000000000000388e-03
-5.301000000000000156e-03
-5.168999999999999984e-03
-5.034000000000000280e-03
-5.069999999999999854e-03
-5.232999999999999804e-03
-5.294000000000000095e-03
-5.171000000000000249e-03
-5.065000000000000058e-03
-5.139999999999999604e-03
-5.322000000000000342e-03
-5.403999999999999949e-03
-5.300000000000000024e-03
-5.209000000000000088e-03
-5.288000000000000166e-03
-5.470000000000000036e-03
-5.549000000000000113e-03
-5.434999999999999727e-03
-5.327000000000000138e-03
-5.399000000000000153e-03
-5.572999999999999829e-03
-5.640000000000000048e-03
-5.518999999999999601e-03
-5.403999999999999949e-03
-5.465000000000000240e-03
-5.627000000000000057e-03
-5.675999999999999622e-03
-5.544999999999999582e-03
-5.426000000000000267e-03
-5.478000000000000230e-03
-5.629000000000000323e-03
-5.683999999999999816e-03
-5.552999999999999776e-03
-5.420000000000000338e-03
-5.471000000000000169e-03
-5.627000000000000057e-03
-5.669000000000000428e-03
-5.544000000000000317e-03
-5.415999999999999807e-03
-5.462999999999999974e-03
-5.616000000000000332e-03
-5.662999999999999631e-03
-5.530000000000000193e-03
-5.402999999999999817e-03
-5.453999999999999647e-03
-5.610999999999999668e-03
-5.656999999999999702e-03
-5.517000000000000202e-03
-5.394000000000000357e-03
-5.446000000000000320e-03
-5.603000000000000341e-03
-5.655000000000000304e-03
-5.523000000000000131e-03
-5.390999999999999959e-03
-5.441999999999999789e-03
-5.603999999999999607e-03
-5.653000000000000039e-03
-5.521999999999999999e-03
-5.407999999999999613e-03
-5.453000000000000382e-03
-5.605999999999999872e-03
-5.663999999999999764e-03
-5.527999999999999928e-03
-5.400000000000000286e-03
-5.455999999999999912e-03
-5.610999999999999668e-03
-5.664999999999999897e-03
-5.529000000000000060e-03
-5.401000000000000419e-03
-5.452000000000000249e-03
-5.607000000000000005e-03
-5.658999999999999968e-03
-5.530000000000000193e-03
-5.399000000000000153e-03
-5.452000000000000249e-03
-5.616000000000000332e-03
-5.666000000000000029e-03
-5.529000000000000060e-03
-5.401000000000000419e-03
-5.455999999999999912e-03
-5.615000000000000199e-03
-5.667000000000000162e-03
-5.531000000000000326e-03
-5.403999999999999949e-03
-5.457000000000000045e-03
-5.616999999999999597e-03
-5.669000000000000428e-03
-5.533999999999999857e-03
-5.403999999999999949e-03
-5.461999999999999841e-03
-5.623999999999999659e-03
-5.664999999999999897e-03
-5.532999999999999724e-03
-5.407999999999999613e-03
-5.461999999999999841e-03
-5.615000000000000199e-03
-5.662999999999999631e-03
-5.527999999999999928e-03
-5.407000000000000348e-03
-5.458000000000000178e-03
-5.616000000000000332e-03
-5.669999999999999693e-03
-5.534999999999999989e-03
-5.405000000000000082e-03
-5.459999999999999576e-03
-5.618999999999999863e-03
-5.664999999999999897e-03
-5.530000000000000193e-03
-5.403999999999999949e-03
-5.458000000000000178e-03
-5.610999999999999668e-03
-5.666000000000000029e-03
-5.525000000000000397e-03
-5.402999999999999817e-03
-5.458000000000000178e-03
-5.618999999999999863e-03
-5.667000000000000162e-03
-5.525999999999999662e-03
-5.401000000000000419e-03
-5.459999999999999576e-03
-5.616999999999999597e-03
-5.668000000000000295e-03
-5.533999999999999857e-03
-5.403999999999999949e-03
-5.459999999999999576e-03
-5.615000000000000199e-03
-5.663999999999999764e-03
-5.530000000000000193e-03
-5.401999999999999684e-03
-5.460999999999999709e-03
-5.621000000000000128e-03
-5.668000000000000295e-03
-5.525999999999999662e-03
-5.403999999999999949e-03
-5.461999999999999841e-03
-5.623000000000000394e-03
-5.669000000000000428e-03
-5.532999999999999724e-03
-5.413000000000000277e-03
-5.472999999999999567e-03
-5.636999999999999650e-03
-5.675999999999999622e-03
-5.533999999999999857e-03
-5.412000000000000144e-03
-5.472999999999999567e-03
-5.627000000000000057e-03
-5.675000000000000357e-03
-5.536000000000000122e-03
-5.416999999999999940e-03
-5.475999999999999965e-03
-5.631999999999999854e-03
-5.676999999999999755e-03
-5.539999999999999786e-03
-5.416999999999999940e-03
-5.474999999999999832e-03
-5.635000000000000252e-03
-5.675999999999999622e-03
-5.539999999999999786e-03
-5.419000000000000206e-03
-5.475999999999999965e-03
-5.630999999999999721e-03
-5.680000000000000153e-03
-5.544000000000000317e-03
-5.420999999999999604e-03
-5.475999999999999965e-03
-5.631999999999999854e-03
-5.676999999999999755e-03
-5.538000000000000388e-03
-5.412000000000000144e-03
-5.471000000000000169e-03
-5.630999999999999721e-03
-5.671999999999999958e-03
-5.536000000000000122e-03
-5.418000000000000073e-03
-5.471000000000000169e-03
-5.627000000000000057e-03
-5.671999999999999958e-03
-5.534999999999999989e-03
-5.414999999999999675e-03
-5.461999999999999841e-03
-5.601000000000000076e-03
-5.616999999999999597e-03
-5.455999999999999912e-03
-5.320000000000000076e-03
-5.368999999999999641e-03
-5.520999999999999866e-03
-5.566999999999999900e-03
-5.422999999999999869e-03
-5.276999999999999573e-03
-5.318999999999999943e-03
-5.479000000000000363e-03
-5.537000000000000255e-03
-5.411000000000000011e-03
-5.290999999999999696e-03
-5.366000000000000110e-03
-5.526999999999999795e-03
-5.570000000000000298e-03
-5.444000000000000054e-03
-5.361000000000000314e-03
-5.448999999999999851e-03
-5.617999999999999730e-03
-5.673000000000000091e-03
-5.545999999999999715e-03
-5.431000000000000064e-03
-5.501999999999999946e-03
-5.668000000000000295e-03
-5.709999999999999798e-03
-5.575000000000000094e-03
-5.460999999999999709e-03
-5.524000000000000264e-03
-5.681000000000000286e-03
-5.722999999999999789e-03
-5.588000000000000085e-03
-5.468999999999999903e-03
-5.529000000000000060e-03
-5.687000000000000215e-03
-5.723999999999999921e-03
-5.583000000000000289e-03
-5.464000000000000107e-03
-5.520999999999999866e-03
-5.682999999999999684e-03
-5.728999999999999718e-03
-5.599999999999999943e-03
-5.512000000000000406e-03
-5.598999999999999810e-03
-5.697999999999999940e-03
-5.586999999999999952e-03
-5.250000000000000326e-03
-4.856000000000000073e-03
-4.584999999999999666e-03
-4.434999999999999706e-03
-4.231999999999999651e-03
-4.068999999999999700e-03
-4.377999999999999947e-03
-4.951999999999999805e-03
-5.512000000000000406e-03
-5.702999999999999736e-03
-5.510000000000000141e-03
-5.342000000000000394e-03
-5.390999999999999959e-03
-5.542000000000000051e-03
-5.598999999999999810e-03
-5.474999999999999832e-03
-5.368000000000000375e-03
-5.432000000000000196e-03
-5.594000000000000014e-03
-5.641000000000000181e-03
-5.499000000000000415e-03
-5.375999999999999703e-03
-5.438000000000000125e-03
-5.597000000000000412e-03
-5.636000000000000384e-03
-5.492999999999999619e-03
-5.370999999999999906e-03
-5.434999999999999727e-03
-5.591999999999999749e-03
-5.629999999999999588e-03
-5.479000000000000363e-03
-5.355999999999999650e-03
-5.412000000000000144e-03
-5.566999999999999900e-03
-5.608000000000000138e-03
-5.460999999999999709e-03
-5.337999999999999863e-03
-5.394999999999999622e-03
-5.544999999999999582e-03
-5.577000000000000360e-03
-5.434999999999999727e-03
-5.313000000000000014e-03
-5.370999999999999906e-03
-5.525000000000000397e-03
-5.559999999999999838e-03
-5.413000000000000277e-03
-5.288000000000000166e-03
-5.346000000000000058e-03
-5.499000000000000415e-03
-5.530000000000000193e-03
-5.383999999999999897e-03
-5.257999999999999653e-03
-5.308000000000000218e-03
-5.459000000000000311e-03
-5.496000000000000017e-03
-5.346000000000000058e-03
-5.211999999999999619e-03
-5.263000000000000317e-03
-5.407999999999999613e-03
-5.436999999999999993e-03
-5.283000000000000369e-03
-5.147999999999999798e-03
-5.196000000000000098e-03
-5.338999999999999996e-03
-5.368000000000000375e-03
-5.210000000000000221e-03
-5.075999999999999783e-03
-5.120999999999999684e-03
-5.269000000000000246e-03
-5.297999999999999758e-03
-5.139000000000000339e-03
-5.011999999999999962e-03
-5.066000000000000190e-03
-5.212999999999999752e-03
-5.244000000000000397e-03
-5.095999999999999835e-03
-4.968000000000000194e-03
-5.021000000000000289e-03
-5.171000000000000249e-03
-5.209000000000000088e-03
-5.074000000000000385e-03
-4.963000000000000397e-03
-5.036999999999999811e-03
-5.212999999999999752e-03
-5.275000000000000175e-03
-5.161999999999999922e-03
-5.076999999999999916e-03
-5.165000000000000320e-03
-5.353000000000000119e-03
-5.425000000000000135e-03
-5.313000000000000014e-03
-5.219999999999999814e-03
-5.305999999999999953e-03
-5.481999999999999894e-03
-5.539999999999999786e-03
-5.416999999999999940e-03
-5.309999999999999616e-03
-5.383999999999999897e-03
-5.550000000000000246e-03
-5.590000000000000351e-03
-5.454999999999999780e-03
-5.342999999999999659e-03
-5.403999999999999949e-03
-5.569000000000000165e-03
-5.603999999999999607e-03
-5.464000000000000107e-03
-5.348000000000000323e-03
-5.415999999999999807e-03
-5.573999999999999962e-03
-5.607000000000000005e-03
-5.466999999999999638e-03
-5.353000000000000119e-03
-5.419000000000000206e-03
-5.571000000000000431e-03
-5.603999999999999607e-03
-5.460999999999999709e-03
-5.347000000000000190e-03
-5.409999999999999878e-03
-5.572999999999999829e-03
-5.612999999999999934e-03
-5.460999999999999709e-03
-5.347000000000000190e-03
-5.415999999999999807e-03
-5.572999999999999829e-03
-5.610000000000000403e-03
-5.466000000000000372e-03
-5.350999999999999854e-03
-5.419000000000000206e-03
-5.583000000000000289e-03
-5.615000000000000199e-03
-5.468999999999999903e-03
-5.357999999999999916e-03
-5.424000000000000002e-03
-5.577999999999999625e-03
-5.615000000000000199e-03
-5.474999999999999832e-03
-5.357999999999999916e-03
-5.426000000000000267e-03
-5.583000000000000289e-03
-5.624999999999999792e-03
-5.479999999999999628e-03
-5.367000000000000243e-03
-5.434999999999999727e-03
-5.595000000000000147e-03
-5.630999999999999721e-03
-5.486999999999999690e-03
-5.372000000000000039e-03
-5.444000000000000054e-03
-5.602000000000000209e-03
-5.638999999999999915e-03
-5.492000000000000354e-03
-5.377999999999999968e-03
-5.447999999999999718e-03
-5.609000000000000270e-03
-5.642999999999999579e-03
-5.499999999999999681e-03
-5.386000000000000162e-03
-5.457000000000000045e-03
-5.616999999999999597e-03
-5.651999999999999906e-03
-5.505999999999999610e-03
-5.394999999999999622e-03
-5.466000000000000372e-03
-5.623000000000000394e-03
-5.656999999999999702e-03
-5.513999999999999804e-03
-5.398000000000000020e-03
-5.467999999999999770e-03
-5.621000000000000128e-03
-5.653000000000000039e-03
-5.509000000000000008e-03
-5.395999999999999755e-03
-5.464000000000000107e-03
-5.623000000000000394e-03
-5.655000000000000304e-03
-5.511000000000000273e-03
-5.395999999999999755e-03
-5.464000000000000107e-03
-5.624999999999999792e-03
-5.654000000000000171e-03
-5.506999999999999743e-03
-5.392000000000000091e-03
-5.464000000000000107e-03
-5.621000000000000128e-03
-5.649999999999999641e-03
-5.511000000000000273e-03
-5.396999999999999888e-03
-5.462999999999999974e-03
-5.621000000000000128e-03
-5.655000000000000304e-03
-5.510000000000000141e-03
-5.398000000000000020e-03
-5.468999999999999903e-03
-5.628000000000000190e-03
-5.658999999999999968e-03
-5.514999999999999937e-03
-5.406000000000000215e-03
-5.472999999999999567e-03
-5.632999999999999986e-03
-5.658999999999999968e-03
-5.513999999999999804e-03
-5.405000000000000082e-03
-5.477000000000000098e-03
-5.632999999999999986e-03
-5.663999999999999764e-03
-5.524000000000000264e-03
-5.412000000000000144e-03
-5.475999999999999965e-03
-5.632999999999999986e-03
-5.664999999999999897e-03
-5.518000000000000335e-03
-5.407000000000000348e-03
-5.480999999999999761e-03
-5.637999999999999783e-03
-5.668000000000000295e-03
-5.519999999999999733e-03
-5.406000000000000215e-03
-5.477000000000000098e-03
-5.632999999999999986e-03
-5.660000000000000100e-03
-5.516000000000000070e-03
-5.401999999999999684e-03
-5.472999999999999567e-03
-5.631999999999999854e-03
-5.662000000000000366e-03
-5.512000000000000406e-03
-5.396999999999999888e-03
-5.462999999999999974e-03
-5.623000000000000394e-03
-5.655000000000000304e-03
-5.507999999999999875e-03
-5.390999999999999959e-03
-5.464000000000000107e-03
-5.629999999999999588e-03
-5.661000000000000233e-03
-5.514999999999999937e-03
-5.401999999999999684e-03
-5.467999999999999770e-03
-5.623999999999999659e-03
-5.660000000000000100e-03
-5.513999999999999804e-03
-5.406000000000000215e-03
-5.472000000000000301e-03
-5.627000000000000057e-03
-5.657999999999999835e-03
-5.510000000000000141e-03
-5.396999999999999888e-03
-5.471000000000000169e-03
-5.627000000000000057e-03
-5.648000000000000242e-03
-5.485000000000000292e-03
-5.356999999999999783e-03
-5.412000000000000144e-03
-5.551000000000000378e-03
-5.571999999999999696e-03
-5.422999999999999869e-03
-5.316000000000000413e-03
-5.383999999999999897e-03
-5.529000000000000060e-03
-5.539999999999999786e-03
-5.388000000000000428e-03
-5.289000000000000298e-03
-5.374999999999999570e-03
-5.537000000000000255e-03
-5.571000000000000431e-03
-5.438000000000000125e-03
-5.336999999999999730e-03
-5.415999999999999807e-03
-5.578999999999999758e-03
-5.628000000000000190e-03
-5.496000000000000017e-03
-5.394000000000000357e-03
-5.478000000000000230e-03
-5.641000000000000181e-03
-5.674000000000000224e-03
-5.533999999999999857e-03
-5.424000000000000002e-03
-5.499000000000000415e-03
-5.658999999999999968e-03
-5.690999999999999878e-03
-5.546999999999999847e-03
-5.440999999999999656e-03
-5.511000000000000273e-03
-5.663999999999999764e-03
-5.692000000000000011e-03
-5.545999999999999715e-03
-5.441999999999999789e-03
-5.514999999999999937e-03
-5.669999999999999693e-03
-5.695000000000000409e-03
-5.551000000000000378e-03
-5.446999999999999585e-03
-5.532999999999999724e-03
-5.727000000000000320e-03
-5.779000000000000282e-03
-5.555000000000000042e-03
-5.283999999999999635e-03
-5.144000000000000135e-03
-5.021000000000000289e-03
-4.708000000000000379e-03
-4.243000000000000244e-03
-3.880000000000000202e-03
-4.014000000000000207e-03
-4.662000000000000345e-03
-5.191000000000000301e-03
-5.441999999999999789e-03
-5.458000000000000178e-03
-5.466000000000000372e-03
-5.572999999999999829e-03
-5.588000000000000085e-03
-5.427999999999999665e-03
-5.330999999999999801e-03
-5.418000000000000073e-03
-5.584000000000000422e-03
-5.616999999999999597e-03
-5.474999999999999832e-03
-5.363999999999999845e-03
-5.440999999999999656e-03
-5.601000000000000076e-03
-5.624999999999999792e-03
-5.475999999999999965e-03
-5.372000000000000039e-03
-5.449999999999999983e-03
-5.601000000000000076e-03
-5.623999999999999659e-03
-5.474999999999999832e-03
-5.364999999999999977e-03
-5.441999999999999789e-03
-5.594000000000000014e-03
-5.614000000000000067e-03
-5.458000000000000178e-03
-5.346000000000000058e-03
-5.422999999999999869e-03
-5.577000000000000360e-03
-5.597999999999999678e-03
-5.446999999999999585e-03
-5.341000000000000261e-03
-5.408999999999999746e-03
-5.557999999999999573e-03
-5.581000000000000023e-03
-5.433999999999999594e-03
-5.324999999999999872e-03
-5.394999999999999622e-03
-5.544999999999999582e-03
-5.560999999999999971e-03
-5.407999999999999613e-03
-5.294000000000000095e-03
-5.364999999999999977e-03
-5.516000000000000070e-03
-5.531000000000000326e-03
-5.374000000000000304e-03
-5.256000000000000255e-03
-5.324999999999999872e-03
-5.467999999999999770e-03
-5.474999999999999832e-03
-5.311999999999999882e-03
-5.197000000000000230e-03
-5.262000000000000184e-03
-5.403999999999999949e-03
-5.422999999999999869e-03
-5.263999999999999582e-03
-5.139000000000000339e-03
-5.198000000000000363e-03
-5.337999999999999863e-03
-5.342000000000000394e-03
-5.186999999999999771e-03
-5.070999999999999987e-03
-5.137000000000000073e-03
-5.277999999999999706e-03
-5.283000000000000369e-03
-5.113999999999999622e-03
-4.995000000000000308e-03
-5.066000000000000190e-03
-5.215000000000000017e-03
-5.232999999999999804e-03
-5.078000000000000048e-03
-4.969999999999999592e-03
-5.050999999999999934e-03
-5.206999999999999823e-03
-5.242000000000000132e-03
-5.117000000000000021e-03
-5.037999999999999944e-03
-5.139000000000000339e-03
-5.320000000000000076e-03
-5.370999999999999906e-03
-5.253999999999999990e-03
-5.185000000000000372e-03
-5.295000000000000227e-03
-5.472999999999999567e-03
-5.519999999999999733e-03
-5.395999999999999755e-03
-5.305999999999999953e-03
-5.392000000000000091e-03
-5.560999999999999971e-03
-5.586999999999999952e-03
-5.445000000000000187e-03
-5.343999999999999792e-03
-5.426000000000000267e-03
-5.586999999999999952e-03
-5.612999999999999934e-03
-5.466999999999999638e-03
-5.367000000000000243e-03
-5.445000000000000187e-03
-5.597000000000000412e-03
-5.621000000000000128e-03
-5.467999999999999770e-03
-5.356999999999999783e-03
-5.438000000000000125e-03
-5.596000000000000280e-03
-5.612999999999999934e-03
-5.458000000000000178e-03
-5.354000000000000252e-03
-5.438000000000000125e-03
-5.590999999999999616e-03
-5.608000000000000138e-03
-5.458000000000000178e-03
-5.359000000000000048e-03
-5.432000000000000196e-03
-5.589000000000000218e-03
-5.616000000000000332e-03
-5.466000000000000372e-03
-5.360000000000000181e-03
-5.438000000000000125e-03
-5.592999999999999881e-03
-5.611999999999999801e-03
-5.461999999999999841e-03
-5.357999999999999916e-03
-5.434999999999999727e-03
-5.592999999999999881e-03
-5.608000000000000138e-03
-5.452000000000000249e-03
-5.349999999999999721e-03
-5.435999999999999860e-03
-5.597000000000000412e-03
-5.615000000000000199e-03
-5.465000000000000240e-03
-5.360000000000000181e-03
-5.440000000000000391e-03
-5.598999999999999810e-03
-5.621000000000000128e-03
-5.464000000000000107e-03
-5.364999999999999977e-03
-5.448999999999999851e-03
-5.601000000000000076e-03
-5.621000000000000128e-03
-5.468999999999999903e-03
-5.369999999999999774e-03
-5.453000000000000382e-03
-5.610000000000000403e-03
-5.628000000000000190e-03
-5.479999999999999628e-03
-5.380000000000000233e-03
-5.460999999999999709e-03
-5.618999999999999863e-03
-5.636999999999999650e-03
-5.479999999999999628e-03
-5.382999999999999764e-03
-5.466000000000000372e-03
-5.616000000000000332e-03
-5.636999999999999650e-03
-5.491000000000000221e-03
-5.393000000000000224e-03
-5.474999999999999832e-03
-5.628000000000000190e-03
-5.643999999999999712e-03
-5.488999999999999956e-03
-5.394999999999999622e-03
-5.479000000000000363e-03
-5.636000000000000384e-03
-5.650999999999999773e-03
-5.492999999999999619e-03
-5.401999999999999684e-03
-5.486000000000000425e-03
-5.640000000000000048e-03
-5.650999999999999773e-03
-5.486999999999999690e-03
-5.389999999999999826e-03
-5.484000000000000159e-03
-5.638999999999999915e-03
-5.656999999999999702e-03
-5.499999999999999681e-03
-5.394999999999999622e-03
-5.479999999999999628e-03
-5.637999999999999783e-03
-5.656999999999999702e-03
-5.499999999999999681e-03
-5.398000000000000020e-03
-5.481999999999999894e-03
-5.634000000000000119e-03
-5.649999999999999641e-03
-5.499999999999999681e-03
-5.390999999999999959e-03
-5.478000000000000230e-03
-5.632999999999999986e-03
-5.643999999999999712e-03
-5.494999999999999885e-03
-5.389999999999999826e-03
-5.472000000000000301e-03
-5.623000000000000394e-03
-5.648000000000000242e-03
-5.501999999999999946e-03
-5.402999999999999817e-03
-5.488999999999999956e-03
-5.641000000000000181e-03
-5.653000000000000039e-03
-5.501999999999999946e-03
-5.398000000000000020e-03
-5.483000000000000027e-03
-5.640000000000000048e-03
-5.653000000000000039e-03
-5.497000000000000150e-03
-5.403999999999999949e-03
-5.493999999999999752e-03
-5.644999999999999844e-03
-5.655000000000000304e-03
-5.492999999999999619e-03
-5.388000000000000428e-03
-5.486999999999999690e-03
-5.645999999999999977e-03
-5.655999999999999570e-03
-5.493999999999999752e-03
-5.375999999999999703e-03
-5.432000000000000196e-03
-5.575000000000000094e-03
-5.583000000000000289e-03
-5.412000000000000144e-03
-5.313000000000000014e-03
-5.388999999999999693e-03
-5.540999999999999918e-03
-5.543000000000000184e-03
-5.368999999999999641e-03
-5.239999999999999866e-03
-5.317999999999999811e-03
-5.484000000000000159e-03
-5.512000000000000406e-03
-5.381000000000000366e-03
-5.311999999999999882e-03
-5.416999999999999940e-03
-5.571000000000000431e-03
-5.594000000000000014e-03
-5.468999999999999903e-03
-5.389999999999999826e-03
-5.487999999999999823e-03
-5.638999999999999915e-03
-5.648000000000000242e-03
-5.493999999999999752e-03
-5.402999999999999817e-03
-5.509000000000000008e-03
-5.675000000000000357e-03
-5.692000000000000011e-03
-5.536000000000000122e-03
-5.438000000000000125e-03
-5.521999999999999999e-03
-5.669000000000000428e-03
-5.675999999999999622e-03
-5.525000000000000397e-03
-5.426000000000000267e-03
-5.512000000000000406e-03
-5.670999999999999826e-03
-5.681000000000000286e-03
-5.519999999999999733e-03
-5.424000000000000002e-03
-5.514999999999999937e-03
-5.663999999999999764e-03
-5.682999999999999684e-03
-5.542000000000000051e-03
-5.504000000000000212e-03
-5.612999999999999934e-03
-5.675999999999999622e-03
-5.504000000000000212e-03
-5.093999999999999570e-03
-4.694000000000000256e-03
-4.446000000000000299e-03
-4.310999999999999728e-03
-4.129999999999999991e-03
-4.088999999999999753e-03
-4.451000000000000095e-03
-5.029999999999999749e-03
-5.563000000000000236e-03
-5.727999999999999585e-03
-5.538999999999999653e-03
-5.369999999999999774e-03
-5.421999999999999736e-03
-5.579999999999999891e-03
-5.589000000000000218e-03
-5.446000000000000320e-03
-5.355000000000000385e-03
-5.442999999999999922e-03
-5.592999999999999881e-03
-5.603000000000000341e-03
-5.440000000000000391e-03
-5.346000000000000058e-03
-5.446000000000000320e-03
-5.603999999999999607e-03
-5.614000000000000067e-03
-5.457000000000000045e-03
-5.349999999999999721e-03
-5.446999999999999585e-03
-5.585999999999999820e-03
-5.588000000000000085e-03
-5.445000000000000187e-03
-5.340000000000000129e-03
-5.434999999999999727e-03
-5.590999999999999616e-03
-5.590999999999999616e-03
-5.433999999999999594e-03
-5.351999999999999987e-03
-5.447999999999999718e-03
-5.597999999999999678e-03
-5.590999999999999616e-03
-5.429999999999999931e-03
-5.322999999999999607e-03
-5.403999999999999949e-03
-5.547999999999999980e-03
-5.566999999999999900e-03
-5.419000000000000206e-03
-5.320000000000000076e-03
-5.390999999999999959e-03
-5.523000000000000131e-03
-5.513999999999999804e-03
-5.357999999999999916e-03
-5.274000000000000042e-03
-5.359000000000000048e-03
-5.486999999999999690e-03
-5.484000000000000159e-03
-5.311999999999999882e-03
-5.219999999999999814e-03
-5.311999999999999882e-03
-5.461999999999999841e-03
-5.457000000000000045e-03
-5.279999999999999971e-03
-5.177000000000000178e-03
-5.263000000000000317e-03
-5.395999999999999755e-03
-5.394000000000000357e-03
-5.229000000000000141e-03
-5.118000000000000153e-03
-5.196000000000000098e-03
-5.349999999999999721e-03
-5.351999999999999987e-03
-5.170000000000000116e-03
-5.059000000000000129e-03
-5.139000000000000339e-03
-5.289000000000000298e-03
-5.292999999999999962e-03
-5.150000000000000064e-03
-5.052000000000000067e-03
-5.115999999999999888e-03
-5.266999999999999980e-03
-5.251999999999999724e-03
-5.105000000000000163e-03
-5.028000000000000351e-03
-5.145000000000000268e-03
-5.321000000000000209e-03
-5.336999999999999730e-03
-5.187999999999999903e-03
-5.122999999999999950e-03
-5.236000000000000203e-03
-5.414999999999999675e-03
-5.462999999999999974e-03
-5.323999999999999740e-03
-5.244000000000000397e-03
-5.366000000000000110e-03
-5.523000000000000131e-03
-5.546999999999999847e-03
-5.421999999999999736e-03
-5.346000000000000058e-03
-5.444000000000000054e-03
-5.597000000000000412e-03
-5.603000000000000341e-03
-5.454999999999999780e-03
-5.364999999999999977e-03
-5.446000000000000320e-03
-5.610000000000000403e-03
-5.622000000000000261e-03
-5.445000000000000187e-03
-5.350999999999999854e-03
-5.447999999999999718e-03
-5.601000000000000076e-03
-5.623999999999999659e-03
-5.468999999999999903e-03
-5.367000000000000243e-03
-5.436999999999999993e-03
-5.595000000000000147e-03
-5.607000000000000005e-03
-5.447999999999999718e-03
-5.372000000000000039e-03
-5.477000000000000098e-03
-5.616000000000000332e-03
-5.597000000000000412e-03
-5.440000000000000391e-03
-5.347000000000000190e-03
-5.462999999999999974e-03
-5.610000000000000403e-03
-5.603999999999999607e-03
-5.433000000000000329e-03
-5.336999999999999730e-03
-5.447999999999999718e-03
-5.611999999999999801e-03
-5.635000000000000252e-03
-5.480999999999999761e-03
-5.369999999999999774e-03
-5.457000000000000045e-03
-5.610999999999999668e-03
-5.605999999999999872e-03
-5.459000000000000311e-03
-5.383999999999999897e-03
-5.457000000000000045e-03
-5.581000000000000023e-03
-5.604999999999999739e-03
-5.483000000000000027e-03
-5.415999999999999807e-03
-5.473999999999999699e-03
-5.628000000000000190e-03
-5.644999999999999844e-03
-5.480999999999999761e-03
-5.415999999999999807e-03
-5.517000000000000202e-03
-5.642000000000000313e-03
-5.636999999999999650e-03
-5.525999999999999662e-03
-5.439000000000000258e-03
-5.497000000000000150e-03
-5.631999999999999854e-03
-5.660000000000000100e-03
-5.497000000000000150e-03
-5.388999999999999693e-03
-5.509000000000000008e-03
-5.697999999999999940e-03
-5.707000000000000267e-03
-5.507999999999999875e-03
-5.389999999999999826e-03
-5.498000000000000283e-03
-5.690999999999999878e-03
-5.689999999999999745e-03
-5.514999999999999937e-03
-5.403999999999999949e-03
-5.501999999999999946e-03
-5.653000000000000039e-03
-5.679000000000000020e-03
-5.544999999999999582e-03
-5.455999999999999912e-03
-5.553999999999999909e-03
-5.682000000000000418e-03
-5.669999999999999693e-03
-5.514999999999999937e-03
-5.433999999999999594e-03
-5.546999999999999847e-03
-5.694000000000000276e-03
-5.669999999999999693e-03
-5.498000000000000283e-03
-5.411000000000000011e-03
-5.500999999999999814e-03
-5.703999999999999869e-03
-5.728999999999999718e-03
-5.525999999999999662e-03
-5.462999999999999974e-03
-5.594000000000000014e-03
-5.720000000000000258e-03
-5.689999999999999745e-03
-5.520999999999999866e-03
-5.409999999999999878e-03
-5.509000000000000008e-03
-5.708000000000000400e-03
-5.720000000000000258e-03
-5.551000000000000378e-03
-5.459999999999999576e-03
-5.550000000000000246e-03
-5.671999999999999958e-03
-5.636000000000000384e-03
-5.466000000000000372e-03
-5.398000000000000020e-03
-5.512999999999999672e-03
-5.637999999999999783e-03
-5.601000000000000076e-03
-5.418000000000000073e-03
-5.309000000000000351e-03
-5.379000000000000101e-03
-5.531000000000000326e-03
-5.549000000000000113e-03
-5.388000000000000428e-03
-5.342999999999999659e-03
-5.504000000000000212e-03
-5.671999999999999958e-03
-5.619999999999999996e-03
-5.454999999999999780e-03
-5.418000000000000073e-03
-5.538999999999999653e-03
-5.734000000000000381e-03
-5.760999999999999628e-03
-5.607000000000000005e-03
-5.488999999999999956e-03
-5.595000000000000147e-03
-5.808999999999999928e-03
-5.807999999999999795e-03
-5.631999999999999854e-03
-5.564999999999999634e-03
-5.651999999999999906e-03
-5.772000000000000221e-03
-5.774999999999999752e-03
-5.668000000000000295e-03
-5.597000000000000412e-03
-5.655000000000000304e-03
-5.790000000000000008e-03
-5.769999999999999955e-03
-5.598999999999999810e-03
-5.582000000000000156e-03
-5.701000000000000338e-03
-5.839999999999999705e-03
-5.800999999999999733e-03
-5.610000000000000403e-03
-5.564000000000000369e-03
-5.754999999999999699e-03
-5.875000000000000014e-03
-5.682000000000000418e-03
-5.304999999999999820e-03
-5.004999999999999900e-03
-4.806000000000000376e-03
-4.629999999999999567e-03
-4.353000000000000098e-03
-4.091000000000000018e-03
-4.276000000000000287e-03
-4.859999999999999737e-03
-5.446999999999999585e-03
-5.717999999999999992e-03
-5.644999999999999844e-03
-5.545999999999999715e-03
-5.616000000000000332e-03
-5.715999999999999727e-03
-5.684999999999999949e-03
-5.536000000000000122e-03
-5.479999999999999628e-03
-5.612999999999999934e-03
-5.734000000000000381e-03
-5.705000000000000002e-03
-5.585999999999999820e-03
-5.488999999999999956e-03
-5.544999999999999582e-03
-5.727999999999999585e-03
-5.747999999999999637e-03
-5.592999999999999881e-03
-5.490000000000000088e-03
-5.584999999999999687e-03
-5.729999999999999850e-03
-5.733000000000000249e-03
-5.572999999999999829e-03
-5.472000000000000301e-03
-5.557000000000000307e-03
-5.714000000000000329e-03
-5.721000000000000391e-03
-5.547999999999999980e-03
-5.427000000000000400e-03
-5.517000000000000202e-03
-5.674000000000000224e-03
-5.675999999999999622e-03
-5.496000000000000017e-03
-5.396999999999999888e-03
-5.505000000000000344e-03
-5.660000000000000100e-03
-5.642999999999999579e-03
-5.475999999999999965e-03
-5.381999999999999632e-03
-5.467999999999999770e-03
-5.602000000000000209e-03
-5.584999999999999687e-03
-5.412000000000000144e-03
-5.334000000000000200e-03
-5.434999999999999727e-03
-5.562000000000000104e-03
-5.525000000000000397e-03
-5.361000000000000314e-03
-5.284999999999999767e-03
-5.396999999999999888e-03
-5.531999999999999591e-03
-5.504000000000000212e-03
-5.336999999999999730e-03
-5.235000000000000070e-03
-5.340000000000000129e-03
-5.484000000000000159e-03
-5.440000000000000391e-03
-5.243000000000000264e-03
-5.161999999999999922e-03
-5.268000000000000113e-03
-5.406000000000000215e-03
-5.386000000000000162e-03
-5.217000000000000283e-03
-5.133999999999999675e-03
-5.255000000000000122e-03
-5.388999999999999693e-03
-5.361000000000000314e-03
-5.187999999999999903e-03
-5.102999999999999897e-03
-5.210000000000000221e-03
-5.370999999999999906e-03
-5.357999999999999916e-03
-5.215000000000000017e-03
-5.158000000000000258e-03
-5.264999999999999715e-03
-5.433999999999999594e-03
-5.432000000000000196e-03
-5.298999999999999891e-03
-5.257000000000000388e-03
-5.398000000000000020e-03
-5.563000000000000236e-03
-5.589000000000000218e-03
-5.458000000000000178e-03
-5.414000000000000409e-03
-5.539999999999999786e-03
-5.697999999999999940e-03
-5.696999999999999807e-03
-5.556000000000000175e-03
-5.501999999999999946e-03
-5.614000000000000067e-03
-5.751000000000000036e-03
-5.723999999999999921e-03
-5.579999999999999891e-03
-5.521999999999999999e-03
-5.631999999999999854e-03
-5.791000000000000140e-03
-5.780999999999999681e-03
-5.615000000000000199e-03
-5.517000000000000202e-03
-5.629999999999999588e-03
-5.774999999999999752e-03
-5.768999999999999823e-03
-5.610999999999999668e-03
-5.513999999999999804e-03
-5.615000000000000199e-03
-5.768999999999999823e-03
-5.765000000000000159e-03
-5.609000000000000270e-03
-5.511000000000000273e-03
-5.610999999999999668e-03
-5.767000000000000424e-03
-5.747000000000000372e-03
-5.573999999999999962e-03
-5.505999999999999610e-03
-5.609000000000000270e-03
-5.748999999999999770e-03
-5.739000000000000178e-03
-5.572999999999999829e-03
-5.480999999999999761e-03
-5.572999999999999829e-03
-5.712000000000000063e-03
-5.713000000000000196e-03
-5.564999999999999634e-03
-5.505999999999999610e-03
-5.607000000000000005e-03
-5.743999999999999974e-03
-5.732000000000000116e-03
-5.562000000000000104e-03
-5.486999999999999690e-03
-5.603999999999999607e-03
-5.756999999999999965e-03
-5.740999999999999576e-03
-5.579999999999999891e-03
-5.494999999999999885e-03
-5.610999999999999668e-03
-5.756999999999999965e-03
-5.739000000000000178e-03
-5.573999999999999962e-03
-5.501999999999999946e-03
-5.611999999999999801e-03
-5.759000000000000230e-03
-5.740999999999999576e-03
-5.578999999999999758e-03
-5.512999999999999672e-03
-5.607000000000000005e-03
-5.740000000000000310e-03
-5.730999999999999983e-03
-5.577000000000000360e-03
-5.494999999999999885e-03
-5.601000000000000076e-03
-5.754999999999999699e-03
-5.755999999999999832e-03
-5.604999999999999739e-03
-5.533999999999999857e-03
-5.628000000000000190e-03
-5.758000000000000097e-03
-5.745000000000000107e-03
-5.603999999999999607e-03
-5.539999999999999786e-03
-5.647000000000000110e-03
-5.795999999999999937e-03
-5.780000000000000415e-03
-5.610999999999999668e-03
-5.533999999999999857e-03
-5.641000000000000181e-03
-5.786000000000000344e-03
-5.785000000000000211e-03
-5.621000000000000128e-03
-5.536000000000000122e-03
-5.642000000000000313e-03
-5.795999999999999937e-03
-5.784000000000000079e-03
-5.614000000000000067e-03
-5.557999999999999573e-03
-5.662999999999999631e-03
-5.806999999999999662e-03
-5.788999999999999875e-03
-5.627000000000000057e-03
-5.552999999999999776e-03
-5.663999999999999764e-03
-5.804000000000000131e-03
-5.786000000000000344e-03
-5.625999999999999925e-03
-5.547999999999999980e-03
-5.662999999999999631e-03
-5.806000000000000397e-03
-5.795999999999999937e-03
-5.634000000000000119e-03
-5.542000000000000051e-03
-5.644999999999999844e-03
-5.802999999999999999e-03
-5.786000000000000344e-03
-5.618999999999999863e-03
-5.545999999999999715e-03
-5.657999999999999835e-03
-5.813999999999999724e-03
-5.790000000000000008e-03
-5.622000000000000261e-03
-5.539999999999999786e-03
-5.636999999999999650e-03
-5.765000000000000159e-03
-5.723999999999999921e-03
-5.542000000000000051e-03
-5.467999999999999770e-03
-5.556000000000000175e-03
-5.684999999999999949e-03
-5.675000000000000357e-03
-5.513999999999999804e-03
-5.428999999999999798e-03
-5.529000000000000060e-03
-5.675999999999999622e-03
-5.662999999999999631e-03
-5.499000000000000415e-03
-5.434999999999999727e-03
-5.556000000000000175e-03
-5.713000000000000196e-03
-5.689999999999999745e-03
-5.517000000000000202e-03
-5.452000000000000249e-03
-5.577999999999999625e-03
-5.741999999999999708e-03
-5.734999999999999647e-03
-5.577999999999999625e-03
-5.507999999999999875e-03
-5.621000000000000128e-03
-5.775999999999999884e-03
-5.760000000000000363e-03
-5.591999999999999749e-03
-5.518000000000000335e-03
-5.634000000000000119e-03
-5.767999999999999690e-03
-5.753999999999999566e-03
-5.597000000000000412e-03
-5.523000000000000131e-03
-5.634000000000000119e-03
-5.778000000000000150e-03
-5.751000000000000036e-03
-5.586999999999999952e-03
-5.531000000000000326e-03
-5.649000000000000375e-03
-5.806999999999999662e-03
-5.818000000000000255e-03
-5.682000000000000418e-03
-5.529000000000000060e-03
-5.477000000000000098e-03
-5.398000000000000020e-03
-5.085000000000000110e-03
-4.588000000000000064e-03
-4.218999999999999660e-03
-4.093000000000000284e-03
-4.258999999999999765e-03
-4.699000000000000052e-03
-5.043999999999999873e-03
-5.376999999999999835e-03
-5.607000000000000005e-03
-5.694000000000000276e-03
-5.632999999999999986e-03
-5.484000000000000159e-03
-5.412000000000000144e-03
-5.538999999999999653e-03
-5.695999999999999674e-03
-5.682000000000000418e-03
-5.533999999999999857e-03
-5.466000000000000372e-03
-5.578999999999999758e-03
-5.722999999999999789e-03
-5.714000000000000329e-03
-5.553999999999999909e-03
-5.481999999999999894e-03
-5.583000000000000289e-03
-5.726000000000000187e-03
-5.706000000000000134e-03
-5.543000000000000184e-03
-5.467999999999999770e-03
-5.577000000000000360e-03
-5.712000000000000063e-03
-5.684999999999999949e-03
-5.517000000000000202e-03
-5.442999999999999922e-03
-5.556000000000000175e-03
-5.693000000000000144e-03
-5.657999999999999835e-03
-5.488999999999999956e-03
-5.414000000000000409e-03
-5.521999999999999999e-03
-5.662999999999999631e-03
-5.632999999999999986e-03
-5.464000000000000107e-03
-5.387000000000000295e-03
-5.498000000000000283e-03
-5.638999999999999915e-03
-5.610999999999999668e-03
-5.440999999999999656e-03
-5.367000000000000243e-03
-5.472999999999999567e-03
-5.607000000000000005e-03
-5.571000000000000431e-03
-5.407999999999999613e-03
-5.328000000000000271e-03
-5.425000000000000135e-03
-5.563000000000000236e-03
-5.525000000000000397e-03
-5.348999999999999588e-03
-5.277999999999999706e-03
-5.381000000000000366e-03
-5.506999999999999743e-03
-5.470000000000000036e-03
-5.291999999999999829e-03
-5.203000000000000159e-03
-5.296000000000000360e-03
-5.426000000000000267e-03
-5.377999999999999968e-03
-5.193999999999999832e-03
-5.109999999999999959e-03
-5.210000000000000221e-03
-5.342000000000000394e-03
-5.301000000000000156e-03
-5.125000000000000215e-03
-5.042999999999999740e-03
-5.143000000000000002e-03
-5.276000000000000308e-03
-5.239999999999999866e-03
-5.067000000000000323e-03
-4.996999999999999706e-03
-5.113000000000000357e-03
-5.270000000000000379e-03
-5.261000000000000051e-03
-5.113999999999999622e-03
-5.061999999999999660e-03
-5.205000000000000425e-03
-5.381000000000000366e-03
-5.382999999999999764e-03
-5.249000000000000193e-03
-5.213999999999999885e-03
-5.366000000000000110e-03
-5.531999999999999591e-03
-5.529000000000000060e-03
-5.387000000000000295e-03
-5.343999999999999792e-03
-5.477000000000000098e-03
-5.632999999999999986e-03
-5.616000000000000332e-03
-5.465000000000000240e-03
-5.409999999999999878e-03
-5.525000000000000397e-03
-5.664999999999999897e-03
-5.649000000000000375e-03
-5.490000000000000088e-03
-5.418000000000000073e-03
-5.538000000000000388e-03
-5.688999999999999613e-03
-5.655999999999999570e-03
-5.496000000000000017e-03
-5.432000000000000196e-03
-5.544999999999999582e-03
-5.684999999999999949e-03
-5.655999999999999570e-03
-5.491000000000000221e-03
-5.426000000000000267e-03
-5.542000000000000051e-03
-5.679000000000000020e-03
-5.645999999999999977e-03
-5.486999999999999690e-03
-5.414999999999999675e-03
-5.531000000000000326e-03
-5.667000000000000162e-03
-5.642999999999999579e-03
-5.496000000000000017e-03
-5.427999999999999665e-03
-5.544999999999999582e-03
-5.684999999999999949e-03
-5.655999999999999570e-03
-5.484000000000000159e-03
-5.426000000000000267e-03
-5.550000000000000246e-03
-5.697999999999999940e-03
-5.663999999999999764e-03
-5.499000000000000415e-03
-5.436999999999999993e-03
-5.558999999999999705e-03
-5.701999999999999603e-03
-5.682000000000000418e-03
-5.512999999999999672e-03
-5.447999999999999718e-03
-5.557999999999999573e-03
-5.702999999999999736e-03
-5.683999999999999816e-03
-5.523000000000000131e-03
-5.458000000000000178e-03
-5.569000000000000165e-03
-5.703999999999999869e-03
-5.677999999999999887e-03
-5.507999999999999875e-03
-5.436999999999999993e-03
-5.563000000000000236e-03
-5.701999999999999603e-03
-5.671999999999999958e-03
-5.510000000000000141e-03
-5.448999999999999851e-03
-5.570000000000000298e-03
-5.707000000000000267e-03
-5.681000000000000286e-03
-5.514999999999999937e-03
-5.446000000000000320e-03
-5.570000000000000298e-03
-5.714000000000000329e-03
-5.677999999999999887e-03
-5.512999999999999672e-03
-5.448999999999999851e-03
-5.562000000000000104e-03
-5.700000000000000205e-03
-5.670999999999999826e-03
-5.512000000000000406e-03
-5.447999999999999718e-03
-5.564999999999999634e-03
-5.713000000000000196e-03
-5.676999999999999755e-03
-5.512000000000000406e-03
-5.453999999999999647e-03
-5.573999999999999962e-03
-5.710999999999999931e-03
-5.679000000000000020e-03
-5.521999999999999999e-03
-5.461999999999999841e-03
-5.577000000000000360e-03
-5.716999999999999860e-03
-5.687000000000000215e-03
-5.525999999999999662e-03
-5.462999999999999974e-03
-5.584000000000000422e-03
-5.719000000000000125e-03
-5.682999999999999684e-03
-5.524000000000000264e-03
-5.460999999999999709e-03
-5.583000000000000289e-03
-5.726000000000000187e-03
-5.690999999999999878e-03
-5.527999999999999928e-03
-5.471000000000000169e-03
-5.595000000000000147e-03
-5.727000000000000320e-03
-5.695999999999999674e-03
-5.534999999999999989e-03
-5.472999999999999567e-03
-5.590999999999999616e-03
-5.729999999999999850e-03
-5.695000000000000409e-03
-5.533999999999999857e-03
-5.479999999999999628e-03
-5.598999999999999810e-03
-5.734000000000000381e-03
-5.695999999999999674e-03
-5.538000000000000388e-03
-5.473999999999999699e-03
-5.594000000000000014e-03
-5.725000000000000054e-03
-5.694000000000000276e-03
-5.529000000000000060e-03
-5.466000000000000372e-03
-5.590999999999999616e-03
-5.733000000000000249e-03
-5.689999999999999745e-03
-5.520999999999999866e-03
-5.462999999999999974e-03
-5.579999999999999891e-03
-5.708000000000000400e-03
-5.655000000000000304e-03
-5.475999999999999965e-03
-5.394999999999999622e-03
-5.498000000000000283e-03
-5.637999999999999783e-03
-5.601000000000000076e-03
-5.439000000000000258e-03
-5.375999999999999703e-03
-5.485000000000000292e-03
-5.611999999999999801e-03
-5.575000000000000094e-03
-5.418000000000000073e-03
-5.381999999999999632e-03
-5.505000000000000344e-03
-5.638999999999999915e-03
-5.618999999999999863e-03
-5.474999999999999832e-03
-5.414999999999999675e-03
-5.529000000000000060e-03
-5.687000000000000215e-03
-5.671999999999999958e-03
-5.517000000000000202e-03
-5.466000000000000372e-03
-5.596000000000000280e-03
-5.741999999999999708e-03
-5.713000000000000196e-03
-5.556000000000000175e-03
-5.497000000000000150e-03
-5.623000000000000394e-03
-5.761999999999999761e-03
-5.721999999999999656e-03
-5.559999999999999838e-03
-5.500999999999999814e-03
-5.628000000000000190e-03
-5.764000000000000026e-03
-5.729999999999999850e-03
-5.564000000000000369e-03
-5.501999999999999946e-03
-5.629000000000000323e-03
-5.774999999999999752e-03
-5.738000000000000045e-03
-5.591999999999999749e-03
-5.577999999999999625e-03
-5.708000000000000400e-03
-5.735999999999999779e-03
-5.524000000000000264e-03
-5.125000000000000215e-03
-4.769999999999999934e-03
-4.558999999999999685e-03
-4.415999999999999787e-03
-4.194999999999999944e-03
-4.225999999999999722e-03
-4.686000000000000061e-03
-5.285999999999999900e-03
-5.719000000000000125e-03
-5.708000000000000400e-03
-5.480999999999999761e-03
-5.405000000000000082e-03
-5.519999999999999733e-03
-5.662000000000000366e-03
-5.640000000000000048e-03
-5.493999999999999752e-03
-5.442999999999999922e-03
-5.572999999999999829e-03
-5.705000000000000002e-03
-5.670999999999999826e-03
-5.511000000000000273e-03
-5.453999999999999647e-03
-5.576000000000000227e-03
-5.713000000000000196e-03
-5.662999999999999631e-03
-5.500999999999999814e-03
-5.452000000000000249e-03
-5.570000000000000298e-03
-5.701999999999999603e-03
-5.657999999999999835e-03
-5.498000000000000283e-03
-5.436999999999999993e-03
-5.551999999999999644e-03
-5.688000000000000347e-03
-5.649000000000000375e-03
-5.478000000000000230e-03
-5.427999999999999665e-03
-5.553999999999999909e-03
-5.682999999999999684e-03
-5.635000000000000252e-03
-5.466000000000000372e-03
-5.406000000000000215e-03
-5.525999999999999662e-03
-5.663999999999999764e-03
-5.623000000000000394e-03
-5.453999999999999647e-03
-5.389999999999999826e-03
-5.510000000000000141e-03
-5.637999999999999783e-03
-5.589000000000000218e-03
-5.422999999999999869e-03
-5.361000000000000314e-03
-5.472000000000000301e-03
-5.599999999999999943e-03
-5.550000000000000246e-03
-5.369999999999999774e-03
-5.309999999999999616e-03
-5.425000000000000135e-03
-5.545999999999999715e-03
-5.492000000000000354e-03
-5.311999999999999882e-03
-5.245999999999999795e-03
-5.361000000000000314e-03
-5.481999999999999894e-03
-5.422999999999999869e-03
-5.242000000000000132e-03
-5.171000000000000249e-03
-5.283000000000000369e-03
-5.398000000000000020e-03
-5.343999999999999792e-03
-5.166999999999999718e-03
-5.100999999999999632e-03
-5.218000000000000416e-03
-5.340000000000000129e-03
-5.290000000000000431e-03
-5.118000000000000153e-03
-5.054000000000000332e-03
-5.166999999999999718e-03
-5.303000000000000422e-03
-5.259999999999999919e-03
-5.101999999999999764e-03
-5.063999999999999925e-03
-5.209000000000000088e-03
-5.362999999999999712e-03
-5.342999999999999659e-03
-5.206999999999999823e-03
-5.181999999999999974e-03
-5.342999999999999659e-03
-5.512000000000000406e-03
-5.493999999999999752e-03
-5.361000000000000314e-03
-5.334000000000000200e-03
-5.480999999999999761e-03
-5.635000000000000252e-03
-5.605999999999999872e-03
-5.453000000000000382e-03
-5.419000000000000206e-03
-5.553999999999999909e-03
-5.694000000000000276e-03
-5.647000000000000110e-03
-5.487999999999999823e-03
-5.439000000000000258e-03
-5.564999999999999634e-03
-5.703999999999999869e-03
-5.667000000000000162e-03
-5.507999999999999875e-03
-5.448999999999999851e-03
-5.575000000000000094e-03
-5.708999999999999665e-03
-5.667000000000000162e-03
-5.501999999999999946e-03
-5.449999999999999983e-03
-5.572999999999999829e-03
-5.702999999999999736e-03
-5.655000000000000304e-03
-5.492000000000000354e-03
-5.438000000000000125e-03
-5.558999999999999705e-03
-5.694000000000000276e-03
-5.649000000000000375e-03
-5.486000000000000425e-03
-5.438000000000000125e-03
-5.563000000000000236e-03
-5.695000000000000409e-03
-5.651999999999999906e-03
-5.494999999999999885e-03
-5.448999999999999851e-03
-5.571999999999999696e-03
-5.701000000000000338e-03
-5.656999999999999702e-03
-5.492000000000000354e-03
-5.442999999999999922e-03
-5.571999999999999696e-03
-5.701999999999999603e-03
-5.657999999999999835e-03
-5.503000000000000079e-03
-5.453000000000000382e-03
-5.576000000000000227e-03
-5.708000000000000400e-03
-5.668000000000000295e-03
-5.506999999999999743e-03
-5.457000000000000045e-03
-5.583000000000000289e-03
-5.715999999999999727e-03
-5.666000000000000029e-03
-5.507999999999999875e-03
-5.457000000000000045e-03
-5.588000000000000085e-03
-5.714000000000000329e-03
-5.660000000000000100e-03
-5.499999999999999681e-03
-5.457000000000000045e-03
-5.585999999999999820e-03
-5.716999999999999860e-03
-5.670999999999999826e-03
-5.506999999999999743e-03
-5.464000000000000107e-03
-5.596000000000000280e-03
-5.721999999999999656e-03
-5.669999999999999693e-03
-5.507999999999999875e-03
-5.468999999999999903e-03
-5.599999999999999943e-03
-5.727999999999999585e-03
-5.675000000000000357e-03
-5.513999999999999804e-03
-5.472000000000000301e-03
-5.601000000000000076e-03
-5.733000000000000249e-03
-5.683999999999999816e-03
-5.514999999999999937e-03
-5.464000000000000107e-03
-5.595000000000000147e-03
-5.725000000000000054e-03
-5.675000000000000357e-03
-5.514999999999999937e-03
-5.472999999999999567e-03
-5.603000000000000341e-03
-5.727000000000000320e-03
-5.679000000000000020e-03
-5.517000000000000202e-03
-5.471000000000000169e-03
-5.598999999999999810e-03
-5.727000000000000320e-03
-5.663999999999999764e-03
-5.498000000000000283e-03
-5.474999999999999832e-03
-5.629000000000000323e-03
-5.736999999999999912e-03
-5.649000000000000375e-03
-5.478000000000000230e-03
-5.465000000000000240e-03
-5.630999999999999721e-03
-5.740000000000000310e-03
-5.642999999999999579e-03
-5.473999999999999699e-03
-5.466000000000000372e-03
-5.628000000000000190e-03
-5.740000000000000310e-03
-5.644999999999999844e-03
-5.472000000000000301e-03
-5.466000000000000372e-03
-5.627000000000000057e-03
-5.736999999999999912e-03
-5.645999999999999977e-03
-5.473999999999999699e-03
-5.470000000000000036e-03
-5.642000000000000313e-03
-5.746000000000000239e-03
-5.645999999999999977e-03
-5.472999999999999567e-03
-5.468999999999999903e-03
-5.638999999999999915e-03
-5.746000000000000239e-03
-5.643999999999999712e-03
-5.466999999999999638e-03
-5.451000000000000116e-03
-5.603000000000000341e-03
-5.701000000000000338e-03
-5.582000000000000156e-03
-5.400000000000000286e-03
-5.396999999999999888e-03
-5.557000000000000307e-03
-5.660000000000000100e-03
-5.562000000000000104e-03
-5.387000000000000295e-03
-5.368999999999999641e-03
-5.537000000000000255e-03
-5.658999999999999968e-03
-5.571999999999999696e-03
-5.401999999999999684e-03
-5.405000000000000082e-03
-5.590999999999999616e-03
-5.709999999999999798e-03
-5.605999999999999872e-03
-5.448999999999999851e-03
-5.468999999999999903e-03
-5.647000000000000110e-03
-5.768999999999999823e-03
-5.675999999999999622e-03
-5.511000000000000273e-03
-5.518000000000000335e-03
-5.689999999999999745e-03
-5.795999999999999937e-03
-5.692000000000000011e-03
-5.525000000000000397e-03
-5.523000000000000131e-03
-5.689999999999999745e-03
-5.797000000000000069e-03
-5.697999999999999940e-03
-5.527999999999999928e-03
-5.525999999999999662e-03
-5.683999999999999816e-03
-5.790000000000000008e-03
-5.688999999999999613e-03
-5.516000000000000070e-03
-5.520999999999999866e-03
-5.695000000000000409e-03
-5.819000000000000387e-03
-5.760000000000000363e-03
-5.591999999999999749e-03
-5.478000000000000230e-03
-5.471000000000000169e-03
-5.336999999999999730e-03
-4.930000000000000354e-03
-4.413000000000000256e-03
-4.117000000000000000e-03
-4.096999999999999947e-03
-4.447000000000000432e-03
-4.869000000000000064e-03
-5.187999999999999903e-03
-5.505000000000000344e-03
-5.694000000000000276e-03
-5.727000000000000320e-03
-5.590000000000000351e-03
-5.407000000000000348e-03
-5.401000000000000419e-03
-5.589000000000000218e-03
-5.707000000000000267e-03
-5.607000000000000005e-03
-5.441999999999999789e-03
-5.452000000000000249e-03
-5.619999999999999996e-03
-5.728999999999999718e-03
-5.624999999999999792e-03
-5.452000000000000249e-03
-5.454999999999999780e-03
-5.622000000000000261e-03
-5.727000000000000320e-03
-5.625999999999999925e-03
-5.449999999999999983e-03
-5.445000000000000187e-03
-5.607000000000000005e-03
-5.715999999999999727e-03
-5.609000000000000270e-03
-5.435999999999999860e-03
-5.431000000000000064e-03
-5.603999999999999607e-03
-5.708000000000000400e-03
-5.601000000000000076e-03
-5.428999999999999798e-03
-5.428999999999999798e-03
-5.590000000000000351e-03
-5.689999999999999745e-03
-5.586999999999999952e-03
-5.407999999999999613e-03
-5.403999999999999949e-03
-5.572999999999999829e-03
-5.675999999999999622e-03
-5.570000000000000298e-03
-5.394000000000000357e-03
-5.385000000000000030e-03
-5.540999999999999918e-03
-5.644999999999999844e-03
-5.537000000000000255e-03
-5.362999999999999712e-03
-5.361000000000000314e-03
-5.520999999999999866e-03
-5.611999999999999801e-03
-5.488999999999999956e-03
-5.310999999999999749e-03
-5.307000000000000085e-03
-5.459000000000000311e-03
-5.551000000000000378e-03
-5.436999999999999993e-03
-5.252999999999999857e-03
-5.238999999999999733e-03
-5.393000000000000224e-03
-5.485000000000000292e-03
-5.362999999999999712e-03
-5.172999999999999647e-03
-5.163000000000000055e-03
-5.310999999999999749e-03
-5.401000000000000419e-03
-5.292999999999999962e-03
-5.113999999999999622e-03
-5.105000000000000163e-03
-5.258999999999999786e-03
-5.351999999999999987e-03
-5.237999999999999601e-03
-5.062999999999999792e-03
-5.075999999999999783e-03
-5.252999999999999857e-03
-5.366000000000000110e-03
-5.272999999999999909e-03
-5.111000000000000092e-03
-5.133999999999999675e-03
-5.333000000000000067e-03
-5.466000000000000372e-03
-5.399000000000000153e-03
-5.270000000000000379e-03
-5.303999999999999687e-03
-5.496000000000000017e-03
-5.624999999999999792e-03
-5.544000000000000317e-03
-5.406000000000000215e-03
-5.438000000000000125e-03
-5.623000000000000394e-03
-5.734999999999999647e-03
-5.640000000000000048e-03
-5.479000000000000363e-03
-5.487999999999999823e-03
-5.661000000000000233e-03
-5.764000000000000026e-03
-5.651999999999999906e-03
-5.479999999999999628e-03
-5.491000000000000221e-03
-5.667000000000000162e-03
-5.767000000000000424e-03
-5.662000000000000366e-03
-5.491000000000000221e-03
-5.486999999999999690e-03
-5.657999999999999835e-03
-5.765000000000000159e-03
-5.655999999999999570e-03
-5.485000000000000292e-03
-5.488999999999999956e-03
-5.649000000000000375e-03
-5.753000000000000301e-03
-5.649999999999999641e-03
-5.475999999999999965e-03
-5.490000000000000088e-03
-5.663999999999999764e-03
-5.760999999999999628e-03
-5.655000000000000304e-03
-5.486000000000000425e-03
-5.498000000000000283e-03
-5.664999999999999897e-03
-5.767000000000000424e-03
-5.658999999999999968e-03
-5.486999999999999690e-03
-5.496000000000000017e-03
-5.670999999999999826e-03
-5.767999999999999690e-03
-5.663999999999999764e-03
-5.491000000000000221e-03
-5.505999999999999610e-03
-5.663999999999999764e-03
-5.759000000000000230e-03
-5.656999999999999702e-03
-5.499000000000000415e-03
-5.519999999999999733e-03
-5.707000000000000267e-03
-5.805000000000000264e-03
-5.692000000000000011e-03
-5.518000000000000335e-03
-5.534999999999999989e-03
-5.707000000000000267e-03
-5.801999999999999866e-03
-5.684999999999999949e-03
-5.507999999999999875e-03
-5.513999999999999804e-03
-5.676999999999999755e-03
-5.772000000000000221e-03
-5.670999999999999826e-03
-5.511000000000000273e-03
-5.525000000000000397e-03
-5.697999999999999940e-03
-5.799000000000000335e-03
-5.694000000000000276e-03
-5.526999999999999795e-03
-5.533999999999999857e-03
-5.700000000000000205e-03
-5.799999999999999600e-03
-5.688999999999999613e-03
-5.524000000000000264e-03
-5.542000000000000051e-03
-5.717999999999999992e-03
-5.815999999999999989e-03
-5.697999999999999940e-03
-5.523000000000000131e-03
-5.536000000000000122e-03
-5.697999999999999940e-03
-5.799999999999999600e-03
-5.700000000000000205e-03
-5.544000000000000317e-03
-5.552999999999999776e-03
-5.728999999999999718e-03
-5.832000000000000378e-03
-5.719000000000000125e-03
-5.546999999999999847e-03
-5.571000000000000431e-03
-5.747000000000000372e-03
-5.834999999999999909e-03
-5.709999999999999798e-03
-5.549000000000000113e-03
-5.562000000000000104e-03
-5.733000000000000249e-03
-5.827999999999999847e-03
-5.708999999999999665e-03
-5.539999999999999786e-03
-5.549000000000000113e-03
-5.707000000000000267e-03
-5.806000000000000397e-03
-5.705000000000000002e-03
-5.545999999999999715e-03
-5.571999999999999696e-03
-5.747999999999999637e-03
-5.843000000000000103e-03
-5.726000000000000187e-03
-5.553999999999999909e-03
-5.575000000000000094e-03
-5.739000000000000178e-03
-5.830000000000000113e-03
-5.714000000000000329e-03
-5.534999999999999989e-03
-5.531000000000000326e-03
-5.677999999999999887e-03
-5.747000000000000372e-03
-5.623999999999999659e-03
-5.459000000000000311e-03
-5.472999999999999567e-03
-5.636999999999999650e-03
-5.725000000000000054e-03
-5.609000000000000270e-03
-5.422999999999999869e-03
-5.422999999999999869e-03
-5.597000000000000412e-03
-5.695999999999999674e-03
-5.583000000000000289e-03
-5.438000000000000125e-03
-5.470000000000000036e-03
-5.662000000000000366e-03
-5.772000000000000221e-03
-5.669999999999999693e-03
-5.533999999999999857e-03
-5.564999999999999634e-03
-5.734999999999999647e-03
-5.825999999999999582e-03
-5.721000000000000391e-03
-5.570000000000000298e-03
-5.608000000000000138e-03
-5.790000000000000008e-03
-5.883000000000000208e-03
-5.782999999999999946e-03
-5.623000000000000394e-03
-5.632999999999999986e-03
-5.785000000000000211e-03
-5.853999999999999829e-03
-5.740999999999999576e-03
-5.584999999999999687e-03
-5.610000000000000403e-03
-5.786000000000000344e-03
-5.891000000000000403e-03
-5.759000000000000230e-03
-5.590000000000000351e-03
-5.598999999999999810e-03
-5.767000000000000424e-03
-5.873999999999999881e-03
-5.787999999999999742e-03
-5.673000000000000091e-03
-5.701999999999999603e-03
-5.759000000000000230e-03
-5.660000000000000100e-03
-5.303999999999999687e-03
-4.836000000000000021e-03
-4.512999999999999651e-03
-4.385000000000000009e-03
-4.291999999999999808e-03
-4.338999999999999975e-03
-4.661000000000000212e-03
-5.181999999999999974e-03
-5.707000000000000267e-03
-5.915000000000000119e-03
-5.758000000000000097e-03
-5.556000000000000175e-03
-5.562000000000000104e-03
-5.721000000000000391e-03
-5.795999999999999937e-03
-5.679000000000000020e-03
-5.520999999999999866e-03
-5.532999999999999724e-03
-5.689999999999999745e-03
-5.792000000000000273e-03
-5.677999999999999887e-03
-5.503000000000000079e-03
-5.511000000000000273e-03
-5.694000000000000276e-03
-5.799000000000000335e-03
-5.674000000000000224e-03
-5.510000000000000141e-03
-5.557999999999999573e-03
-5.734999999999999647e-03
-5.806000000000000397e-03
-5.682000000000000418e-03
-5.531999999999999591e-03
-5.530000000000000193e-03
-5.689999999999999745e-03
-5.784000000000000079e-03
-5.669999999999999693e-03
-5.509000000000000008e-03
-5.532999999999999724e-03
-5.695000000000000409e-03
-5.768999999999999823e-03
-5.637999999999999783e-03
-5.466999999999999638e-03
-5.507999999999999875e-03
-5.696999999999999807e-03
-5.765000000000000159e-03
-5.632999999999999986e-03
-5.466000000000000372e-03
-5.484000000000000159e-03
-5.645999999999999977e-03
-5.728999999999999718e-03
-5.598999999999999810e-03
-5.427999999999999665e-03
-5.442999999999999922e-03
-5.597999999999999678e-03
-5.675000000000000357e-03
-5.559999999999999838e-03
-5.385000000000000030e-03
-5.412000000000000144e-03
-5.588000000000000085e-03
-5.664999999999999897e-03
-5.531999999999999591e-03
-5.340000000000000129e-03
-5.350999999999999854e-03
-5.525000000000000397e-03
-5.608000000000000138e-03
-5.468999999999999903e-03
-5.297999999999999758e-03
-5.322999999999999607e-03
-5.480999999999999761e-03
-5.538000000000000388e-03
-5.402999999999999817e-03
-5.222000000000000079e-03
-5.238999999999999733e-03
-5.407000000000000348e-03
-5.500999999999999814e-03
-5.351999999999999987e-03
-5.167999999999999851e-03
-5.191999999999999567e-03
-5.393000000000000224e-03
-5.473999999999999699e-03
-5.335000000000000332e-03
-5.196000000000000098e-03
-5.249000000000000193e-03
-5.429999999999999931e-03
-5.539999999999999786e-03
-5.434999999999999727e-03
-5.304999999999999820e-03
-5.356999999999999783e-03
-5.545999999999999715e-03
-5.641000000000000181e-03
-5.566999999999999900e-03
-5.440999999999999656e-03
-5.497000000000000150e-03
-5.693000000000000144e-03
-5.786999999999999610e-03
-5.660000000000000100e-03
-5.504000000000000212e-03
-5.555000000000000042e-03
-5.747000000000000372e-03
-5.854999999999999961e-03
-5.735999999999999779e-03
-5.555000000000000042e-03
-5.559999999999999838e-03
-5.739000000000000178e-03
-5.858000000000000360e-03
-5.726000000000000187e-03
-5.551999999999999644e-03
-5.588000000000000085e-03
-5.754999999999999699e-03
-5.838999999999999573e-03
-5.733000000000000249e-03
-5.569000000000000165e-03
-5.572999999999999829e-03
-5.740999999999999576e-03
-5.808999999999999928e-03
-5.686000000000000082e-03
-5.546999999999999847e-03
-5.584999999999999687e-03
-5.734000000000000381e-03
-5.812000000000000326e-03
-5.695000000000000409e-03
-5.551000000000000378e-03
-5.551999999999999644e-03
-5.736999999999999912e-03
-5.841999999999999971e-03
-5.702999999999999736e-03
-5.513999999999999804e-03
-5.577999999999999625e-03
-5.759000000000000230e-03
-5.815999999999999989e-03
-5.702999999999999736e-03
-5.557999999999999573e-03
-5.609000000000000270e-03
-5.798000000000000202e-03
-5.858999999999999625e-03
-5.740999999999999576e-03
-5.575000000000000094e-03
-5.588000000000000085e-03
-5.767999999999999690e-03
-5.871000000000000350e-03
-5.743999999999999974e-03
-5.582000000000000156e-03
-5.643999999999999712e-03
-5.819999999999999653e-03
-5.891000000000000403e-03
-5.743999999999999974e-03
-5.557999999999999573e-03
-5.586999999999999952e-03
-5.788999999999999875e-03
-5.898999999999999730e-03
-5.739000000000000178e-03
-5.586999999999999952e-03
-5.643999999999999712e-03
-5.824000000000000184e-03
-5.906999999999999924e-03
-5.800999999999999733e-03
-5.636000000000000384e-03
-5.661000000000000233e-03
-5.844000000000000236e-03
-5.949000000000000295e-03
-5.788999999999999875e-03
-5.648000000000000242e-03
-5.702999999999999736e-03
-5.866999999999999819e-03
-5.919999999999999915e-03
-5.779000000000000282e-03
-5.640000000000000048e-03
-5.680000000000000153e-03
-5.851000000000000298e-03
-5.955000000000000224e-03
-5.828999999999999980e-03
-5.655999999999999570e-03
-5.688000000000000347e-03
-5.879999999999999810e-03
-5.956000000000000356e-03
-5.831000000000000245e-03
-5.669000000000000428e-03
-5.677999999999999887e-03
-5.838999999999999573e-03
-5.944999999999999764e-03
-5.845999999999999634e-03
-5.696999999999999807e-03
-5.714999999999999594e-03
-5.886999999999999872e-03
-5.934000000000000039e-03
-5.812999999999999591e-03
-5.683999999999999816e-03
-5.743999999999999974e-03
-5.898999999999999730e-03
-5.955000000000000224e-03
-5.819000000000000387e-03
-5.643999999999999712e-03
-5.643999999999999712e-03
-5.820999999999999786e-03
-5.911999999999999721e-03
-5.786000000000000344e-03
-5.602000000000000209e-03
-5.658999999999999968e-03
-5.827999999999999847e-03
-5.849000000000000032e-03
-5.706000000000000134e-03
-5.563000000000000236e-03
-5.610000000000000403e-03
-5.839999999999999705e-03
-5.943000000000000366e-03
-5.786999999999999610e-03
-5.618999999999999863e-03
-5.679000000000000020e-03
-5.867999999999999952e-03
-5.955000000000000224e-03
-5.858999999999999625e-03
-5.714000000000000329e-03
-5.765000000000000159e-03
-5.929000000000000242e-03
-5.976999999999999674e-03
-5.828999999999999980e-03
-5.682000000000000418e-03
-5.755999999999999832e-03
-5.917000000000000384e-03
-5.995999999999999594e-03
-5.846999999999999767e-03
-5.710999999999999931e-03
-5.773999999999999619e-03
-5.956999999999999622e-03
-6.010999999999999850e-03
-5.870000000000000218e-03
-5.719000000000000125e-03
-5.793000000000000406e-03
-5.916000000000000252e-03
-5.961000000000000153e-03
-5.827999999999999847e-03
-5.739000000000000178e-03
-5.863000000000000156e-03
-5.957999999999999755e-03
-5.834999999999999909e-03
-5.483000000000000027e-03
-5.061000000000000394e-03
-4.804000000000000110e-03
-4.686000000000000061e-03
-4.534999999999999969e-03
-4.367000000000000222e-03
-4.582000000000000135e-03
-5.105000000000000163e-03
-5.640000000000000048e-03
-5.963999999999999684e-03
-5.878000000000000412e-03
-5.657999999999999835e-03
-5.669000000000000428e-03
-5.862000000000000023e-03
-5.902000000000000128e-03
-5.740000000000000310e-03
-5.584999999999999687e-03
-5.631999999999999854e-03
-5.827999999999999847e-03
-5.929000000000000242e-03
-5.827999999999999847e-03
-5.681000000000000286e-03
-5.680000000000000153e-03
-5.841999999999999971e-03
-5.899999999999999863e-03
-5.772000000000000221e-03
-5.619999999999999996e-03
-5.655999999999999570e-03
-5.843000000000000103e-03
-5.916000000000000252e-03
-5.756999999999999965e-03
-5.573999999999999962e-03
-5.623000000000000394e-03
-5.805000000000000264e-03
-5.889000000000000137e-03
-5.767000000000000424e-03
-5.599999999999999943e-03
-5.627000000000000057e-03
-5.817000000000000122e-03
-5.873999999999999881e-03
-5.709999999999999798e-03
-5.581000000000000023e-03
-5.649000000000000375e-03
-5.814999999999999857e-03
-5.858999999999999625e-03
-5.702999999999999736e-03
-5.546999999999999847e-03
-5.577000000000000360e-03
-5.728999999999999718e-03
-5.825999999999999582e-03
-5.684999999999999949e-03
-5.514999999999999937e-03
-5.575000000000000094e-03
-5.723999999999999921e-03
-5.797000000000000069e-03
-5.675999999999999622e-03
-5.493999999999999752e-03
-5.501999999999999946e-03
-5.662999999999999631e-03
-5.739000000000000178e-03
-5.585999999999999820e-03
-5.438000000000000125e-03
-5.492999999999999619e-03
-5.655999999999999570e-03
-5.674000000000000224e-03
-5.501999999999999946e-03
-5.341000000000000261e-03
-5.388000000000000428e-03
-5.560999999999999971e-03
-5.603000000000000341e-03
-5.453999999999999647e-03
-5.304999999999999820e-03
-5.343999999999999792e-03
-5.507999999999999875e-03
-5.560999999999999971e-03
-5.435999999999999860e-03
-5.283999999999999635e-03
-5.308000000000000218e-03
-5.464000000000000107e-03
-5.542000000000000051e-03
-5.421999999999999736e-03
-5.253999999999999990e-03
-5.314000000000000147e-03
-5.532999999999999724e-03
-5.636000000000000384e-03
-5.512999999999999672e-03
-5.377999999999999968e-03
-5.455999999999999912e-03
-5.664999999999999897e-03
-5.735999999999999779e-03
-5.635000000000000252e-03
-5.509000000000000008e-03
-5.564999999999999634e-03
-5.752000000000000168e-03
-5.832000000000000378e-03
-5.722999999999999789e-03
-5.583000000000000289e-03
-5.621000000000000128e-03
-5.793999999999999671e-03
-5.867999999999999952e-03
-5.740000000000000310e-03
-5.610000000000000403e-03
-5.656999999999999702e-03
-5.827999999999999847e-03
-5.878999999999999677e-03
-5.734000000000000381e-03
-5.584999999999999687e-03
-5.623000000000000394e-03
-5.799000000000000335e-03
-5.860999999999999890e-03
-5.721999999999999656e-03
-5.576000000000000227e-03
-5.638999999999999915e-03
-5.808999999999999928e-03
-5.860999999999999890e-03
-5.721000000000000391e-03
-5.540999999999999918e-03
-5.579999999999999891e-03
-5.782999999999999946e-03
-5.853999999999999829e-03
-5.707000000000000267e-03
-5.544999999999999582e-03
-5.603999999999999607e-03
-5.794999999999999804e-03
-5.851000000000000298e-03
-5.696999999999999807e-03
-5.545999999999999715e-03
-5.589000000000000218e-03
-5.775999999999999884e-03
-5.852000000000000431e-03
-5.713000000000000196e-03
-5.547999999999999980e-03
-5.595000000000000147e-03
