9.710999999999999147e-03
9.631999999999999937e-03
9.672000000000000042e-03
9.792000000000000356e-03
9.827000000000000665e-03
9.733999999999999597e-03
9.634000000000000202e-03
9.655000000000000387e-03
9.752000000000000252e-03
9.769999999999999171e-03
9.664000000000000715e-03
9.554999999999999258e-03
9.572000000000000647e-03
9.669999999999999776e-03
9.686000000000000165e-03
9.575999999999999443e-03
9.478999999999999579e-03
9.509999999999999357e-03
9.622000000000000344e-03
9.650999999999999857e-03
9.544999999999999665e-03
9.450000000000000067e-03
9.487999999999999906e-03
9.606999999999999221e-03
9.636000000000000468e-03
9.537999999999999604e-03
9.452000000000000332e-03
9.492000000000000437e-03
9.605000000000000690e-03
9.632999999999999202e-03
9.535000000000000073e-03
9.443999999999999270e-03
9.483999999999999375e-03
9.601000000000000159e-03
9.627000000000000141e-03
9.520000000000000684e-03
9.433000000000000412e-03
9.480000000000000579e-03
9.605000000000000690e-03
9.634999999999999468e-03
9.532000000000000542e-03
9.443999999999999270e-03
9.488999999999999171e-03
9.605999999999999955e-03
9.631999999999999937e-03
9.534000000000000807e-03
9.452999999999999597e-03
9.499999999999999764e-03
9.617000000000000548e-03
9.639999999999999264e-03
9.537000000000000338e-03
9.456000000000000863e-03
9.502999999999999295e-03
9.619000000000000813e-03
9.638000000000000733e-03
9.534000000000000807e-03
9.450999999999999332e-03
9.501000000000000764e-03
9.617999999999999813e-03
9.638000000000000733e-03
9.537999999999999604e-03
9.459999999999999659e-03
9.511000000000000357e-03
9.622999999999999610e-03
9.639999999999999264e-03
9.535000000000000073e-03
9.461000000000000659e-03
9.511000000000000357e-03
9.625999999999999140e-03
9.643000000000000529e-03
9.535999999999999338e-03
9.459999999999999659e-03
9.518000000000000418e-03
9.634000000000000202e-03
9.648000000000000326e-03
9.539999999999999869e-03
9.462999999999999190e-03
9.520999999999999949e-03
9.634000000000000202e-03
9.646000000000000060e-03
9.540999999999999134e-03
9.466999999999999721e-03
9.520000000000000684e-03
9.636999999999999733e-03
9.650999999999999857e-03
9.544000000000000400e-03
9.473000000000000517e-03
9.530999999999999542e-03
9.648000000000000326e-03
9.658999999999999184e-03
9.551000000000000462e-03
9.478000000000000314e-03
9.535999999999999338e-03
9.646999999999999326e-03
9.657999999999999918e-03
9.544999999999999665e-03
9.468999999999999986e-03
9.528000000000000011e-03
9.646000000000000060e-03
9.662000000000000449e-03
9.551999999999999727e-03
9.487999999999999906e-03
9.558000000000000523e-03
9.683999999999999900e-03
9.700999999999999554e-03
9.598999999999999894e-03
9.528000000000000011e-03
9.586000000000000770e-03
9.697000000000000758e-03
9.707000000000000350e-03
9.608999999999999486e-03
9.556000000000000258e-03
9.639999999999999264e-03
9.752999999999999517e-03
9.743999999999999190e-03
9.615000000000000283e-03
9.535999999999999338e-03
9.596999999999999628e-03
9.705000000000000085e-03
9.704000000000000820e-03
9.584000000000000505e-03
9.502000000000000030e-03
9.563999999999999585e-03
9.674000000000000307e-03
9.672999999999999307e-03
9.558000000000000523e-03
9.490000000000000172e-03
9.560000000000000789e-03
9.672000000000000042e-03
9.674999999999999573e-03
9.563000000000000320e-03
9.494000000000000702e-03
9.565999999999999850e-03
9.679000000000000103e-03
9.671000000000000776e-03
9.525000000000000480e-03
9.407000000000000431e-03
9.450000000000000067e-03
9.586000000000000770e-03
9.601000000000000159e-03
9.570999999999999647e-03
9.724000000000000005e-03
1.006600000000000029e-02
1.045199999999999949e-02
1.077900000000000039e-02
1.075599999999999994e-02
1.054899999999999935e-02
1.043299999999999957e-02
1.030200000000000039e-02
1.009600000000000081e-02
9.844000000000000319e-03
9.698999999999999289e-03
9.726999999999999535e-03
9.811000000000000276e-03
9.792000000000000356e-03
9.672999999999999307e-03
9.599999999999999159e-03
9.667000000000000245e-03
9.764000000000000110e-03
9.747999999999999721e-03
9.627999999999999406e-03
9.565000000000000585e-03
9.638000000000000733e-03
9.740000000000000394e-03
9.726999999999999535e-03
9.612000000000000752e-03
9.553000000000000727e-03
9.627999999999999406e-03
9.735999999999999863e-03
9.723000000000000739e-03
9.603000000000000425e-03
9.547999999999999196e-03
9.627000000000000141e-03
9.730000000000000801e-03
9.721999999999999739e-03
9.613999999999999282e-03
9.577999999999999708e-03
9.664999999999999980e-03
9.768999999999999906e-03
9.757000000000000048e-03
9.639999999999999264e-03
9.582999999999999505e-03
9.664999999999999980e-03
9.768000000000000640e-03
9.749999999999999986e-03
9.632999999999999202e-03
9.575999999999999443e-03
9.655999999999999653e-03
9.764000000000000110e-03
9.745999999999999455e-03
9.629000000000000406e-03
9.575000000000000178e-03
9.660999999999999449e-03
9.766000000000000375e-03
9.745999999999999455e-03
9.629999999999999671e-03
9.580999999999999239e-03
9.664999999999999980e-03
9.771999999999999437e-03
9.757999999999999313e-03
9.645000000000000795e-03
9.603000000000000425e-03
9.691999999999999227e-03
9.801999999999999949e-03
9.789000000000000826e-03
9.681999999999999634e-03
9.646000000000000060e-03
9.740999999999999659e-03
9.848000000000000850e-03
9.839000000000000523e-03
9.730000000000000801e-03
9.693000000000000227e-03
9.792000000000000356e-03
9.903000000000000344e-03
9.884999999999999690e-03
9.778999999999999498e-03
9.745999999999999455e-03
9.835999999999999258e-03
9.936999999999999653e-03
9.908999999999999406e-03
9.780999999999999764e-03
9.726000000000000270e-03
9.799000000000000418e-03
9.877999999999999628e-03
9.832999999999999727e-03
9.700999999999999554e-03
9.645000000000000795e-03
9.719999999999999474e-03
9.802999999999999214e-03
9.764000000000000110e-03
9.634999999999999468e-03
9.582000000000000239e-03
9.667999999999999511e-03
9.757999999999999313e-03
9.724999999999999270e-03
9.605000000000000690e-03
9.563999999999999585e-03
9.657000000000000653e-03
9.749999999999999986e-03
9.716000000000000678e-03
9.598999999999999894e-03
9.556999999999999523e-03
9.648000000000000326e-03
9.745999999999999455e-03
9.712999999999999412e-03
9.591999999999999832e-03
9.556000000000000258e-03
9.648999999999999591e-03
9.743999999999999190e-03
9.709000000000000616e-03
9.587999999999999301e-03
9.549000000000000196e-03
9.645000000000000795e-03
9.740000000000000394e-03
9.705000000000000085e-03
9.589999999999999566e-03
9.556000000000000258e-03
9.650999999999999857e-03
9.743999999999999190e-03
9.705999999999999350e-03
9.584999999999999770e-03
9.551999999999999727e-03
9.653000000000000122e-03
9.743999999999999190e-03
9.704000000000000820e-03
9.591000000000000567e-03
9.558999999999999789e-03
9.653999999999999387e-03
9.745000000000000190e-03
9.707999999999999616e-03
9.589000000000000301e-03
9.561000000000000054e-03
9.657999999999999918e-03
9.749999999999999986e-03
9.707999999999999616e-03
9.589999999999999566e-03
9.563999999999999585e-03
9.667000000000000245e-03
9.752000000000000252e-03
9.704000000000000820e-03
9.587000000000000036e-03
9.558999999999999789e-03
9.657999999999999918e-03
9.742999999999999924e-03
9.698000000000000023e-03
9.584999999999999770e-03
9.558999999999999789e-03
9.664000000000000715e-03
9.749999999999999986e-03
9.704000000000000820e-03
9.591000000000000567e-03
9.568000000000000116e-03
9.671000000000000776e-03
9.756000000000000782e-03
9.707999999999999616e-03
9.587999999999999301e-03
9.568000000000000116e-03
9.667999999999999511e-03
9.752000000000000252e-03
9.702000000000000554e-03
9.587999999999999301e-03
9.565000000000000585e-03
9.665999999999999245e-03
9.747999999999999721e-03
9.702999999999999819e-03
9.587999999999999301e-03
9.568999999999999381e-03
9.672999999999999307e-03
9.754999999999999782e-03
9.705000000000000085e-03
9.596999999999999628e-03
9.594999999999999363e-03
9.709000000000000616e-03
9.794000000000000622e-03
9.747999999999999721e-03
9.636999999999999733e-03
9.615999999999999548e-03
9.716999999999999943e-03
9.799999999999999684e-03
9.761999999999999844e-03
9.664000000000000715e-03
9.657999999999999918e-03
9.759000000000000313e-03
9.828999999999999196e-03
9.761000000000000579e-03
9.638999999999999999e-03
9.624000000000000610e-03
9.726000000000000270e-03
9.799000000000000418e-03
9.731000000000000066e-03
9.608999999999999486e-03
9.594000000000000097e-03
9.698000000000000023e-03
9.769999999999999171e-03
9.705999999999999350e-03
9.593000000000000832e-03
9.584000000000000505e-03
9.690999999999999961e-03
9.766999999999999640e-03
9.705999999999999350e-03
9.596000000000000363e-03
9.589000000000000301e-03
9.693999999999999492e-03
9.757000000000000048e-03
9.655000000000000387e-03
9.490999999999999437e-03
9.468000000000000721e-03
9.599999999999999159e-03
9.691999999999999227e-03
9.738000000000000128e-03
9.858000000000000443e-03
1.012399999999999932e-02
1.051700000000000031e-02
1.090900000000000029e-02
1.088100000000000005e-02
1.062199999999999950e-02
1.042700000000000050e-02
1.030099999999999939e-02
1.017299999999999975e-02
9.979999999999999288e-03
9.795999999999999153e-03
9.742999999999999924e-03
9.830000000000000196e-03
9.889000000000000221e-03
9.811999999999999542e-03
9.684999999999999165e-03
9.671000000000000776e-03
9.773999999999999702e-03
9.835999999999999258e-03
9.764000000000000110e-03
9.648000000000000326e-03
9.648999999999999591e-03
9.757000000000000048e-03
9.825000000000000400e-03
9.754000000000000517e-03
9.641000000000000264e-03
9.636999999999999733e-03
9.745999999999999455e-03
9.809999999999999276e-03
9.738999999999999393e-03
9.632999999999999202e-03
9.634999999999999468e-03
9.749999999999999986e-03
9.813999999999999807e-03
9.742999999999999924e-03
9.631999999999999937e-03
9.634000000000000202e-03
9.743999999999999190e-03
9.811000000000000276e-03
9.740999999999999659e-03
9.632999999999999202e-03
9.638000000000000733e-03
9.754000000000000517e-03
9.818999999999999603e-03
9.747000000000000455e-03
9.639999999999999264e-03
9.643999999999999795e-03
9.761999999999999844e-03
9.830999999999999461e-03
9.757999999999999313e-03
9.658999999999999184e-03
9.667000000000000245e-03
9.780000000000000498e-03
9.842999999999999319e-03
9.769999999999999171e-03
9.669000000000000511e-03
9.678000000000000838e-03
9.794999999999999887e-03
9.860000000000000708e-03
9.783999999999999295e-03
9.679999999999999369e-03
9.698000000000000023e-03
9.820000000000000603e-03
9.886000000000000690e-03
9.818000000000000338e-03
9.721000000000000474e-03
9.742000000000000659e-03
9.868000000000000035e-03
9.939999999999999183e-03
9.872000000000000566e-03
9.776999999999999233e-03
9.795999999999999153e-03
9.922000000000000264e-03
9.988999999999999616e-03
9.919000000000000733e-03
9.818999999999999603e-03
9.835999999999999258e-03
9.950000000000000511e-03
1.000099999999999947e-02
9.908999999999999406e-03
9.792999999999999622e-03
9.794999999999999887e-03
9.898000000000000548e-03
9.936000000000000387e-03
9.837999999999999523e-03
9.726000000000000270e-03
9.733000000000000332e-03
9.839000000000000523e-03
9.875000000000000097e-03
9.783000000000000029e-03
9.669999999999999776e-03
9.683999999999999900e-03
9.795999999999999153e-03
9.839000000000000523e-03
9.749999999999999986e-03
9.650000000000000591e-03
9.665999999999999245e-03
9.780000000000000498e-03
9.830000000000000196e-03
9.745000000000000190e-03
9.648000000000000326e-03
9.669999999999999776e-03
9.785000000000000295e-03
9.830999999999999461e-03
9.742000000000000659e-03
9.643999999999999795e-03
9.671000000000000776e-03
9.789000000000000826e-03
9.830999999999999461e-03
9.738000000000000128e-03
9.638000000000000733e-03
9.665999999999999245e-03
9.783999999999999295e-03
9.827999999999999931e-03
9.742000000000000659e-03
9.648000000000000326e-03
9.674999999999999573e-03
9.790999999999999356e-03
9.837000000000000258e-03
9.743999999999999190e-03
9.648000000000000326e-03
9.676999999999999838e-03
9.797000000000000153e-03
9.830000000000000196e-03
9.740000000000000394e-03
9.646999999999999326e-03
9.674999999999999573e-03
9.790999999999999356e-03
9.832000000000000461e-03
9.745000000000000190e-03
9.648999999999999591e-03
9.674000000000000307e-03
9.792999999999999622e-03
9.837000000000000258e-03
9.745999999999999455e-03
9.653999999999999387e-03
9.684999999999999165e-03
9.799000000000000418e-03
9.834999999999999992e-03
9.743999999999999190e-03
9.653999999999999387e-03
9.688999999999999696e-03
9.809999999999999276e-03
9.842000000000000054e-03
9.747000000000000455e-03
9.655999999999999653e-03
9.688999999999999696e-03
9.804999999999999480e-03
9.839999999999999789e-03
9.745999999999999455e-03
9.652000000000000857e-03
9.684999999999999165e-03
9.804000000000000214e-03
9.837999999999999523e-03
9.743999999999999190e-03
9.660999999999999449e-03
9.693000000000000227e-03
9.809999999999999276e-03
9.842999999999999319e-03
9.745000000000000190e-03
9.653999999999999387e-03
9.693999999999999492e-03
9.809999999999999276e-03
9.844000000000000319e-03
9.752999999999999517e-03
9.665999999999999245e-03
9.702000000000000554e-03
9.816000000000000072e-03
9.842999999999999319e-03
9.749000000000000721e-03
9.662999999999999715e-03
9.702000000000000554e-03
9.816000000000000072e-03
9.841000000000000789e-03
9.745000000000000190e-03
9.664999999999999980e-03
9.719999999999999474e-03
9.851000000000000381e-03
9.879999999999999893e-03
9.780999999999999764e-03
9.698000000000000023e-03
9.738999999999999393e-03
9.851999999999999647e-03
9.884999999999999690e-03
9.797999999999999418e-03
9.724000000000000005e-03
9.783999999999999295e-03
9.900000000000000813e-03
9.906999999999999140e-03
9.790000000000000091e-03
9.705000000000000085e-03
9.745999999999999455e-03
9.858000000000000443e-03
9.872999999999999832e-03
9.754999999999999782e-03
9.662000000000000449e-03
9.709000000000000616e-03
9.827000000000000665e-03
9.844000000000000319e-03
9.737000000000000863e-03
9.653999999999999387e-03
9.705999999999999350e-03
9.823000000000000134e-03
9.842999999999999319e-03
9.740000000000000394e-03
9.657999999999999918e-03
9.704000000000000820e-03
9.821999999999999134e-03
9.834000000000000727e-03
9.691999999999999227e-03
9.565000000000000585e-03
9.601000000000000159e-03
9.738999999999999393e-03
9.775000000000000702e-03
9.773000000000000437e-03
9.924999999999999795e-03
1.024800000000000016e-02
1.065499999999999954e-02
1.099200000000000003e-02
1.092300000000000042e-02
1.069600000000000065e-02
1.056200000000000021e-02
1.043799999999999936e-02
1.025500000000000023e-02
1.002300000000000066e-02
9.872999999999999832e-03
9.877999999999999628e-03
9.964999999999999900e-03
9.967000000000000165e-03
9.849999999999999381e-03
9.764999999999999375e-03
9.813999999999999807e-03
9.917000000000000468e-03
9.924999999999999795e-03
9.816999999999999338e-03
9.740000000000000394e-03
9.792999999999999622e-03
9.900000000000000813e-03
9.913999999999999202e-03
9.806000000000000480e-03
9.731999999999999332e-03
9.787999999999999826e-03
9.894000000000000017e-03
9.901999999999999344e-03
9.797000000000000153e-03
9.724999999999999270e-03
9.785999999999999560e-03
9.898000000000000548e-03
9.908000000000000140e-03
9.801000000000000684e-03
9.728000000000000536e-03
9.787000000000000560e-03
9.898999999999999813e-03
9.905000000000000610e-03
9.797999999999999418e-03
9.726000000000000270e-03
9.783999999999999295e-03
9.896999999999999548e-03
9.900000000000000813e-03
9.792999999999999622e-03
9.726999999999999535e-03
9.794000000000000622e-03
9.912000000000000671e-03
9.922999999999999529e-03
9.818000000000000338e-03
9.749000000000000721e-03
9.809999999999999276e-03
9.920999999999999264e-03
9.927000000000000060e-03
9.816000000000000072e-03
9.745999999999999455e-03
9.809999999999999276e-03
9.924000000000000529e-03
9.931000000000000591e-03
9.823000000000000134e-03
9.763000000000000844e-03
9.837999999999999523e-03
9.955000000000000307e-03
9.957999999999999838e-03
9.856000000000000177e-03
9.801999999999999949e-03
9.877000000000000363e-03
9.995999999999999677e-03
1.000400000000000074e-02
9.898000000000000548e-03
9.841000000000000789e-03
9.919999999999999998e-03
1.004000000000000031e-02
1.004500000000000011e-02
9.938000000000000653e-03
9.877999999999999628e-03
9.953000000000000042e-03
1.005600000000000070e-02
1.004400000000000084e-02
9.922000000000000264e-03
9.848000000000000850e-03
9.905000000000000610e-03
9.995999999999999677e-03
9.974000000000000227e-03
9.844000000000000319e-03
9.766999999999999640e-03
9.825000000000000400e-03
9.917999999999999733e-03
9.894999999999999282e-03
9.771999999999999437e-03
9.709000000000000616e-03
9.780000000000000498e-03
9.880999999999999159e-03
9.870000000000000301e-03
9.754999999999999782e-03
9.697000000000000758e-03
9.771999999999999437e-03
9.870000000000000301e-03
9.860000000000000708e-03
9.743999999999999190e-03
9.688999999999999696e-03
9.768000000000000640e-03
9.870999999999999566e-03
9.856999999999999443e-03
9.742999999999999924e-03
9.688000000000000431e-03
9.759000000000000313e-03
9.861999999999999239e-03
9.853000000000000647e-03
9.740000000000000394e-03
9.691999999999999227e-03
9.773999999999999702e-03
9.872999999999999832e-03
9.853000000000000647e-03
9.735000000000000597e-03
9.686000000000000165e-03
9.766999999999999640e-03
9.870000000000000301e-03
9.853999999999999912e-03
9.731999999999999332e-03
9.683000000000000634e-03
9.759999999999999579e-03
9.860000000000000708e-03
9.844999999999999585e-03
9.731000000000000066e-03
9.681999999999999634e-03
9.764000000000000110e-03
9.863999999999999505e-03
9.842000000000000054e-03
9.728999999999999801e-03
9.683000000000000634e-03
9.764000000000000110e-03
9.865999999999999770e-03
9.842999999999999319e-03
9.728999999999999801e-03
9.681000000000000369e-03
9.761000000000000579e-03
9.861999999999999239e-03
9.844000000000000319e-03
9.724999999999999270e-03
9.681000000000000369e-03
9.766999999999999640e-03
9.865000000000000505e-03
9.839999999999999789e-03
9.724000000000000005e-03
9.679999999999999369e-03
9.768999999999999906e-03
9.868000000000000035e-03
9.842999999999999319e-03
9.724999999999999270e-03
9.683999999999999900e-03
9.768000000000000640e-03
9.865999999999999770e-03
9.844000000000000319e-03
9.731000000000000066e-03
9.690000000000000696e-03
9.776999999999999233e-03
9.872999999999999832e-03
9.848000000000000850e-03
9.733999999999999597e-03
9.693000000000000227e-03
9.785000000000000295e-03
9.879999999999999893e-03
9.848000000000000850e-03
9.726000000000000270e-03
9.690000000000000696e-03
9.783000000000000029e-03
9.875999999999999363e-03
9.849999999999999381e-03
9.733000000000000332e-03
9.693000000000000227e-03
9.782000000000000764e-03
9.874000000000000832e-03
9.844000000000000319e-03
9.728999999999999801e-03
9.691999999999999227e-03
9.787999999999999826e-03
9.880999999999999159e-03
9.846999999999999850e-03
9.733000000000000332e-03
9.697000000000000758e-03
9.792000000000000356e-03
9.886999999999999955e-03
9.856999999999999443e-03
9.737000000000000863e-03
9.702000000000000554e-03
9.790999999999999356e-03
9.879999999999999893e-03
9.846999999999999850e-03
9.733000000000000332e-03
9.702000000000000554e-03
9.801000000000000684e-03
9.896000000000000282e-03
9.860000000000000708e-03
9.745999999999999455e-03
9.719999999999999474e-03
9.823999999999999400e-03
9.917000000000000468e-03
9.886000000000000690e-03
9.775000000000000702e-03
9.735999999999999863e-03
9.825999999999999665e-03
9.927000000000000060e-03
9.901000000000000079e-03
9.797999999999999418e-03
9.782000000000000764e-03
9.868999999999999301e-03
9.943000000000000449e-03
9.894999999999999282e-03
9.771000000000000171e-03
9.738000000000000128e-03
9.835999999999999258e-03
9.917999999999999733e-03
9.863000000000000239e-03
9.735999999999999863e-03
9.707999999999999616e-03
9.806000000000000480e-03
9.887999999999999221e-03
9.844000000000000319e-03
9.726999999999999535e-03
9.705999999999999350e-03
9.804000000000000214e-03
9.889999999999999486e-03
9.846999999999999850e-03
9.733000000000000332e-03
9.709999999999999881e-03
9.802999999999999214e-03
9.863000000000000239e-03
9.764000000000000110e-03
9.610000000000000486e-03
9.598000000000000628e-03
9.712000000000000147e-03
9.839000000000000523e-03
9.964999999999999900e-03
1.011800000000000026e-02
1.037300000000000028e-02
1.080399999999999937e-02
1.107600000000000078e-02
1.092199999999999942e-02
1.064200000000000042e-02
1.040600000000000032e-02
1.028699999999999927e-02
1.020500000000000053e-02
1.005999999999999950e-02
9.889000000000000221e-03
9.834999999999999992e-03
9.924999999999999795e-03
1.000000000000000021e-02
9.936000000000000387e-03
9.815000000000000807e-03
9.783000000000000029e-03
9.879999999999999893e-03
9.955000000000000307e-03
9.893000000000000752e-03
9.773999999999999702e-03
9.750999999999999251e-03
9.853000000000000647e-03
9.929999999999999591e-03
9.872999999999999832e-03
9.757999999999999313e-03
9.740999999999999659e-03
9.844000000000000319e-03
9.922000000000000264e-03
9.863999999999999505e-03
9.747000000000000455e-03
9.731999999999999332e-03
9.834000000000000727e-03
9.905999999999999875e-03
9.851000000000000381e-03
9.738999999999999393e-03
9.724000000000000005e-03
9.830999999999999461e-03
9.906999999999999140e-03
9.842999999999999319e-03
9.733999999999999597e-03
9.721999999999999739e-03
9.827000000000000665e-03
9.900000000000000813e-03
9.839999999999999789e-03
9.730000000000000801e-03
9.723000000000000739e-03
9.830999999999999461e-03
9.903999999999999609e-03
9.848000000000000850e-03
9.740999999999999659e-03
9.735999999999999863e-03
9.841000000000000789e-03
9.912999999999999937e-03
9.851000000000000381e-03
9.740000000000000394e-03
9.740000000000000394e-03
9.851000000000000381e-03
9.926000000000000795e-03
9.872000000000000566e-03
9.773999999999999702e-03
9.775999999999999968e-03
9.887999999999999221e-03
9.962999999999999634e-03
9.908000000000000140e-03
9.809000000000000011e-03
9.816999999999999338e-03
9.938999999999999918e-03
1.001999999999999939e-02
9.964000000000000634e-03
9.860999999999999974e-03
9.870999999999999566e-03
9.990999999999999881e-03
1.006800000000000056e-02
1.000700000000000027e-02
9.898000000000000548e-03
9.896000000000000282e-03
1.000200000000000047e-02
1.006300000000000076e-02
9.983999999999999819e-03
9.863000000000000239e-03
9.849999999999999381e-03
9.945999999999999980e-03
9.997999999999999943e-03
9.917999999999999733e-03
9.797000000000000153e-03
9.785999999999999560e-03
9.887999999999999221e-03
9.943000000000000449e-03
9.860000000000000708e-03
9.747000000000000455e-03
9.745999999999999455e-03
9.858999999999999708e-03
9.917999999999999733e-03
9.837999999999999523e-03
9.724999999999999270e-03
9.726999999999999535e-03
9.839999999999999789e-03
9.901999999999999344e-03
9.828999999999999196e-03
9.724000000000000005e-03
9.728999999999999801e-03
9.839999999999999789e-03
9.898999999999999813e-03
9.823999999999999400e-03
9.719999999999999474e-03
9.726000000000000270e-03
9.835999999999999258e-03
9.894000000000000017e-03
9.816999999999999338e-03
9.712000000000000147e-03
9.724999999999999270e-03
9.839999999999999789e-03
9.896999999999999548e-03
9.823000000000000134e-03
9.717999999999999208e-03
9.724999999999999270e-03
9.842999999999999319e-03
9.901999999999999344e-03
9.818000000000000338e-03
9.709999999999999881e-03
9.719000000000000208e-03
9.832000000000000461e-03
9.889999999999999486e-03
9.811999999999999542e-03
9.709000000000000616e-03
9.721000000000000474e-03
9.832000000000000461e-03
9.884000000000000424e-03
9.808000000000000745e-03
9.705999999999999350e-03
9.719000000000000208e-03
9.834999999999999992e-03
9.886999999999999955e-03
9.806999999999999745e-03
9.709000000000000616e-03
9.724000000000000005e-03
9.839000000000000523e-03
9.896000000000000282e-03
9.818999999999999603e-03
9.714999999999999677e-03
9.731999999999999332e-03
9.846000000000000585e-03
9.905999999999999875e-03
9.830999999999999461e-03
9.726000000000000270e-03
9.740000000000000394e-03
9.856000000000000177e-03
9.903999999999999609e-03
9.821999999999999134e-03
9.724999999999999270e-03
9.747000000000000455e-03
9.861999999999999239e-03
9.906999999999999140e-03
9.816999999999999338e-03
9.716000000000000678e-03
9.742000000000000659e-03
9.860000000000000708e-03
9.906999999999999140e-03
9.827999999999999931e-03
9.737000000000000863e-03
9.759000000000000313e-03
9.877000000000000363e-03
9.922999999999999529e-03
9.834999999999999992e-03
9.740000000000000394e-03
9.764999999999999375e-03
9.880999999999999159e-03
9.924000000000000529e-03
9.827999999999999931e-03
9.728999999999999801e-03
9.752000000000000252e-03
9.865000000000000505e-03
9.906999999999999140e-03
9.820999999999999869e-03
9.723000000000000739e-03
9.745000000000000190e-03
9.863000000000000239e-03
9.906999999999999140e-03
9.818000000000000338e-03
9.726999999999999535e-03
9.764000000000000110e-03
9.882000000000000159e-03
9.927000000000000060e-03
9.858000000000000443e-03
9.794999999999999887e-03
9.835999999999999258e-03
9.964000000000000634e-03
1.001699999999999986e-02
9.931000000000000591e-03
9.834000000000000727e-03
9.853999999999999912e-03
9.974999999999999492e-03
1.002100000000000039e-02
9.934000000000000122e-03
9.846000000000000585e-03
9.860000000000000708e-03
9.960999999999999369e-03
1.000000000000000021e-02
9.908000000000000140e-03
9.816000000000000072e-03
9.848000000000000850e-03
9.950000000000000511e-03
9.972999999999999227e-03
9.877999999999999628e-03
9.785999999999999560e-03
9.818000000000000338e-03
9.927999999999999325e-03
9.964000000000000634e-03
9.872999999999999832e-03
9.780000000000000498e-03
9.820000000000000603e-03
9.943000000000000449e-03
9.974999999999999492e-03
9.875000000000000097e-03
9.773000000000000437e-03
9.794999999999999887e-03
9.882000000000000159e-03
9.880999999999999159e-03
9.797000000000000153e-03
9.724999999999999270e-03
9.780999999999999764e-03
1.001299999999999933e-02
1.027800000000000068e-02
1.047099999999999941e-02
1.068599999999999932e-02
1.093599999999999954e-02
1.090099999999999923e-02
1.073499999999999975e-02
1.045500000000000075e-02
1.017700000000000028e-02
1.007300000000000036e-02
1.010899999999999993e-02
1.008299999999999995e-02
9.945999999999999980e-03
9.841000000000000789e-03
9.882000000000000159e-03
1.000099999999999947e-02
1.003300000000000025e-02
9.946999999999999245e-03
9.880999999999999159e-03
9.936000000000000387e-03
1.004299999999999984e-02
1.006199999999999976e-02
9.953000000000000042e-03
9.863000000000000239e-03
9.900000000000000813e-03
1.000500000000000000e-02
1.002300000000000066e-02
9.910000000000000406e-03
9.816999999999999338e-03
9.858999999999999708e-03
9.974000000000000227e-03
1.000500000000000000e-02
9.912000000000000671e-03
9.839000000000000523e-03
9.882000000000000159e-03
9.990000000000000616e-03
1.000799999999999954e-02
9.903999999999999609e-03
9.818000000000000338e-03
9.870999999999999566e-03
9.985000000000000819e-03
1.000400000000000074e-02
9.908000000000000140e-03
9.827000000000000665e-03
9.877000000000000363e-03
1.000500000000000000e-02
1.003800000000000005e-02
9.945999999999999980e-03
9.879999999999999893e-03
9.934000000000000122e-03
1.004999999999999991e-02
1.006899999999999983e-02
9.959000000000000838e-03
9.879000000000000628e-03
9.929000000000000326e-03
1.003199999999999925e-02
1.004200000000000058e-02
9.938999999999999918e-03
9.860999999999999974e-03
9.919000000000000733e-03
1.004400000000000084e-02
1.005900000000000023e-02
9.957000000000000572e-03
9.887999999999999221e-03
9.952000000000000776e-03
1.007699999999999915e-02
1.011199999999999946e-02
1.002899999999999972e-02
9.974000000000000227e-03
1.004200000000000058e-02
1.017200000000000049e-02
1.020399999999999953e-02
1.010400000000000013e-02
1.002699999999999945e-02
1.007699999999999915e-02
1.018200000000000008e-02
1.018299999999999934e-02
1.007000000000000083e-02
9.990999999999999881e-03
1.004799999999999964e-02
1.015699999999999936e-02
1.015600000000000010e-02
1.003500000000000052e-02
9.948999999999999511e-03
9.990999999999999881e-03
1.008399999999999921e-02
1.007399999999999962e-02
9.945999999999999980e-03
9.863999999999999505e-03
9.912000000000000671e-03
1.000400000000000074e-02
1.000099999999999947e-02
9.887999999999999221e-03
9.821999999999999134e-03
9.894000000000000017e-03
1.002100000000000039e-02
1.003000000000000072e-02
9.910999999999999671e-03
9.832999999999999727e-03
9.894999999999999282e-03
1.000400000000000074e-02
9.995000000000000412e-03
9.872000000000000566e-03
9.806000000000000480e-03
9.875999999999999363e-03
9.990000000000000616e-03
9.998999999999999208e-03
9.891000000000000486e-03
9.820000000000000603e-03
9.891999999999999751e-03
1.000900000000000054e-02
1.001400000000000033e-02
9.903999999999999609e-03
9.842000000000000054e-03
9.915999999999999467e-03
1.002399999999999992e-02
1.001100000000000080e-02
9.894000000000000017e-03
9.825000000000000400e-03
9.893000000000000752e-03
9.997999999999999943e-03
9.990000000000000616e-03
9.868000000000000035e-03
9.795999999999999153e-03
9.870000000000000301e-03
9.986000000000000085e-03
9.986999999999999350e-03
9.870999999999999566e-03
9.811999999999999542e-03
9.884000000000000424e-03
9.986999999999999350e-03
9.983000000000000554e-03
9.870999999999999566e-03
9.816000000000000072e-03
9.898999999999999813e-03
1.001200000000000007e-02
9.998999999999999208e-03
9.877999999999999628e-03
9.815000000000000807e-03
9.884999999999999690e-03
9.986999999999999350e-03
9.986999999999999350e-03
9.877000000000000363e-03
9.816999999999999338e-03
9.887999999999999221e-03
9.988999999999999616e-03
9.974000000000000227e-03
9.856999999999999443e-03
9.811999999999999542e-03
9.891999999999999751e-03
9.997999999999999943e-03
9.988000000000000350e-03
9.874000000000000832e-03
9.816000000000000072e-03
9.889999999999999486e-03
9.997000000000000677e-03
9.986999999999999350e-03
9.870999999999999566e-03
9.818000000000000338e-03
9.901999999999999344e-03
1.000900000000000054e-02
9.991999999999999146e-03
9.882000000000000159e-03
9.842000000000000054e-03
9.934000000000000122e-03
1.004700000000000037e-02
1.003800000000000005e-02
9.922999999999999529e-03
9.870999999999999566e-03
9.959000000000000838e-03
1.007300000000000036e-02
1.007500000000000062e-02
9.974000000000000227e-03
9.933000000000000856e-03
1.000599999999999927e-02
1.009000000000000001e-02
1.005999999999999950e-02
9.934000000000000122e-03
9.882999999999999424e-03
9.959000000000000838e-03
1.004900000000000064e-02
1.001800000000000086e-02
9.891999999999999751e-03
9.837000000000000258e-03
9.915999999999999467e-03
1.001200000000000007e-02
9.985000000000000819e-03
9.867000000000000770e-03
9.820999999999999869e-03
9.912000000000000671e-03
1.001499999999999960e-02
9.993999999999999412e-03
9.874000000000000832e-03
9.830000000000000196e-03
9.913999999999999202e-03
9.986999999999999350e-03
9.913999999999999202e-03
9.759999999999999579e-03
9.738999999999999393e-03
9.854999999999999177e-03
1.000500000000000000e-02
1.013499999999999991e-02
1.027199999999999988e-02
1.048999999999999932e-02
1.086499999999999966e-02
1.114399999999999939e-02
1.093500000000000028e-02
1.060000000000000005e-02
1.035699999999999989e-02
1.026099999999999929e-02
1.022400000000000045e-02
1.011300000000000046e-02
9.953999999999999307e-03
9.900000000000000813e-03
9.986000000000000085e-03
1.007699999999999915e-02
1.004099999999999958e-02
9.913999999999999202e-03
9.870999999999999566e-03
9.953999999999999307e-03
1.004299999999999984e-02
1.000700000000000027e-02
9.886999999999999955e-03
9.848000000000000850e-03
9.943999999999999714e-03
1.003099999999999999e-02
9.995999999999999677e-03
9.884999999999999690e-03
9.848000000000000850e-03
9.938999999999999918e-03
1.003000000000000072e-02
9.990000000000000616e-03
9.872999999999999832e-03
9.839000000000000523e-03
9.933000000000000856e-03
1.002600000000000019e-02
9.988999999999999616e-03
9.872000000000000566e-03
9.834000000000000727e-03
9.931999999999999856e-03
1.002199999999999966e-02
9.986999999999999350e-03
9.875000000000000097e-03
9.841000000000000789e-03
9.936000000000000387e-03
1.002899999999999972e-02
9.990000000000000616e-03
9.870000000000000301e-03
9.846000000000000585e-03
9.948000000000000245e-03
1.003700000000000078e-02
9.997999999999999943e-03
9.879000000000000628e-03
9.853999999999999912e-03
9.959000000000000838e-03
1.004900000000000064e-02
1.000999999999999980e-02
9.896000000000000282e-03
9.875999999999999363e-03
9.983000000000000554e-03
1.007000000000000083e-02
1.003099999999999999e-02
9.915000000000000202e-03
9.889999999999999486e-03
1.000000000000000021e-02
1.010100000000000060e-02
1.006400000000000003e-02
9.950000000000000511e-03
9.927999999999999325e-03
1.003899999999999931e-02
1.013499999999999991e-02
1.010100000000000060e-02
9.993999999999999412e-03
9.972999999999999227e-03
1.008399999999999921e-02
1.017500000000000002e-02
1.013000000000000012e-02
1.001100000000000080e-02
9.986000000000000085e-03
1.008399999999999921e-02
1.015800000000000036e-02
1.010100000000000060e-02
9.976999999999999758e-03
9.941999999999999449e-03
1.003199999999999925e-02
1.009099999999999928e-02
1.001800000000000086e-02
9.896000000000000282e-03
9.872999999999999832e-03
9.971999999999999961e-03
1.004400000000000084e-02
9.983000000000000554e-03
9.856999999999999443e-03
9.830999999999999461e-03
9.933000000000000856e-03
1.001100000000000080e-02
9.953999999999999307e-03
9.841000000000000789e-03
9.827999999999999931e-03
9.929999999999999591e-03
1.000799999999999954e-02
9.950999999999999776e-03
9.837000000000000258e-03
9.820999999999999869e-03
9.927000000000000060e-03
1.000099999999999947e-02
9.946999999999999245e-03
9.832000000000000461e-03
9.818000000000000338e-03
9.927000000000000060e-03
1.000200000000000047e-02
9.945000000000000714e-03
9.837000000000000258e-03
9.827999999999999931e-03
9.931999999999999856e-03
1.000099999999999947e-02
9.939999999999999183e-03
9.827000000000000665e-03
9.818000000000000338e-03
9.929000000000000326e-03
1.000299999999999974e-02
9.943999999999999714e-03
9.832999999999999727e-03
9.820999999999999869e-03
9.927999999999999325e-03
1.000299999999999974e-02
9.943000000000000449e-03
9.827999999999999931e-03
9.816999999999999338e-03
9.927999999999999325e-03
9.995999999999999677e-03
9.929000000000000326e-03
9.816000000000000072e-03
9.808000000000000745e-03
9.913999999999999202e-03
9.985000000000000819e-03
9.920999999999999264e-03
9.808000000000000745e-03
9.806000000000000480e-03
9.913999999999999202e-03
9.978000000000000758e-03
9.912000000000000671e-03
9.804999999999999480e-03
9.797999999999999418e-03
9.905999999999999875e-03
9.976000000000000492e-03
9.905000000000000610e-03
9.792999999999999622e-03
9.790000000000000091e-03
9.903000000000000344e-03
9.969000000000000430e-03
9.894000000000000017e-03
9.783000000000000029e-03
9.780000000000000498e-03
9.894999999999999282e-03
9.962000000000000369e-03
9.889999999999999486e-03
9.780999999999999764e-03
9.782000000000000764e-03
9.894999999999999282e-03
9.974000000000000227e-03
9.915000000000000202e-03
9.818000000000000338e-03
9.825000000000000400e-03
9.945000000000000714e-03
1.001299999999999933e-02
9.945000000000000714e-03
9.839000000000000523e-03
9.846999999999999850e-03
9.972999999999999227e-03
1.004799999999999964e-02
9.976999999999999758e-03
9.860999999999999974e-03
9.856000000000000177e-03
9.957000000000000572e-03
1.000700000000000027e-02
9.922999999999999529e-03
9.808000000000000745e-03
9.804999999999999480e-03
9.906999999999999140e-03
9.953999999999999307e-03
9.872000000000000566e-03
9.761000000000000579e-03
9.764000000000000110e-03
9.875999999999999363e-03
9.936999999999999653e-03
9.865000000000000505e-03
9.757000000000000048e-03
9.764000000000000110e-03
9.872000000000000566e-03
9.922999999999999529e-03
9.853000000000000647e-03
9.754000000000000517e-03
9.754000000000000517e-03
9.834999999999999992e-03
9.844999999999999585e-03
9.759000000000000313e-03
9.686999999999999431e-03
9.730000000000000801e-03
9.953999999999999307e-03
1.023600000000000031e-02
1.042599999999999950e-02
1.058699999999999919e-02
1.090200000000000023e-02
1.102700000000000034e-02
1.087800000000000052e-02
1.057899999999999986e-02
1.024599999999999990e-02
1.009299999999999954e-02
1.009999999999999960e-02
1.009299999999999954e-02
9.976000000000000492e-03
9.856999999999999443e-03
9.870999999999999566e-03
9.983999999999999819e-03
1.002499999999999919e-02
9.931999999999999856e-03
9.827000000000000665e-03
9.839999999999999789e-03
9.946999999999999245e-03
9.991999999999999146e-03
9.905999999999999875e-03
9.804000000000000214e-03
9.820000000000000603e-03
9.931000000000000591e-03
9.976000000000000492e-03
9.889000000000000221e-03
9.792999999999999622e-03
9.813000000000000542e-03
9.927000000000000060e-03
9.976000000000000492e-03
9.891000000000000486e-03
9.794999999999999887e-03
9.820000000000000603e-03
9.941000000000000184e-03
9.993000000000000146e-03
9.903999999999999609e-03
9.804999999999999480e-03
9.830999999999999461e-03
9.943000000000000449e-03
9.986000000000000085e-03
9.896000000000000282e-03
9.802999999999999214e-03
9.832000000000000461e-03
9.945000000000000714e-03
9.990999999999999881e-03
9.908000000000000140e-03
9.808000000000000745e-03
9.832000000000000461e-03
9.945999999999999980e-03
9.988999999999999616e-03
9.900000000000000813e-03
9.804999999999999480e-03
9.834000000000000727e-03
9.953999999999999307e-03
9.995999999999999677e-03
9.905000000000000610e-03
9.809000000000000011e-03
9.846999999999999850e-03
9.969999999999999696e-03
1.001800000000000086e-02
9.936000000000000387e-03
9.848000000000000850e-03
9.884000000000000424e-03
1.000900000000000054e-02
1.005600000000000070e-02
9.972999999999999227e-03
9.889999999999999486e-03
9.933000000000000856e-03
1.005900000000000023e-02
1.010800000000000066e-02
1.002100000000000039e-02
9.939999999999999183e-03
9.983999999999999819e-03
1.010400000000000013e-02
1.013599999999999918e-02
1.003199999999999925e-02
9.939999999999999183e-03
9.967999999999999430e-03
1.007599999999999989e-02
1.009600000000000081e-02
9.988999999999999616e-03
9.884000000000000424e-03
9.905999999999999875e-03
1.000200000000000047e-02
1.001699999999999986e-02
9.903000000000000344e-03
9.806000000000000480e-03
9.837999999999999523e-03
9.945999999999999980e-03
9.965999999999999165e-03
9.861999999999999239e-03
9.771000000000000171e-03
9.806000000000000480e-03
9.917999999999999733e-03
9.943999999999999714e-03
9.844999999999999585e-03
9.763000000000000844e-03
9.802999999999999214e-03
9.919999999999999998e-03
9.943999999999999714e-03
9.839000000000000523e-03
9.750999999999999251e-03
9.795999999999999153e-03
9.912999999999999937e-03
9.943000000000000449e-03
9.844000000000000319e-03
9.752999999999999517e-03
9.797000000000000153e-03
9.915000000000000202e-03
9.939999999999999183e-03
9.839000000000000523e-03
9.757000000000000048e-03
9.806000000000000480e-03
9.922999999999999529e-03
9.948000000000000245e-03
9.844999999999999585e-03
9.764000000000000110e-03
9.811000000000000276e-03
9.929999999999999591e-03
9.952000000000000776e-03
9.849000000000000116e-03
9.764000000000000110e-03
9.816000000000000072e-03
9.936999999999999653e-03
9.962999999999999634e-03
9.863999999999999505e-03
9.780999999999999764e-03
9.825000000000000400e-03
9.941000000000000184e-03
9.964000000000000634e-03
9.858000000000000443e-03
9.778999999999999498e-03
9.830999999999999461e-03
9.945999999999999980e-03
9.964999999999999900e-03
9.858000000000000443e-03
9.775000000000000702e-03
9.820999999999999869e-03
9.931000000000000591e-03
9.948000000000000245e-03
9.839000000000000523e-03
9.761999999999999844e-03
9.818999999999999603e-03
9.931000000000000591e-03
9.948000000000000245e-03
9.844000000000000319e-03
9.771999999999999437e-03
9.827999999999999931e-03
9.936000000000000387e-03
9.941999999999999449e-03
9.832999999999999727e-03
9.764000000000000110e-03
9.832000000000000461e-03
9.948000000000000245e-03
9.962999999999999634e-03
9.854999999999999177e-03
9.783000000000000029e-03
9.842000000000000054e-03
9.950999999999999776e-03
9.959000000000000838e-03
9.848000000000000850e-03
9.775000000000000702e-03
9.834999999999999992e-03
9.950999999999999776e-03
9.957999999999999838e-03
9.849999999999999381e-03
9.778000000000000233e-03
9.837000000000000258e-03
9.953000000000000042e-03
9.960999999999999369e-03
9.849999999999999381e-03
9.780000000000000498e-03
9.842000000000000054e-03
9.953000000000000042e-03
9.964000000000000634e-03
9.854999999999999177e-03
9.783999999999999295e-03
9.848000000000000850e-03
9.960999999999999369e-03
9.964999999999999900e-03
9.853999999999999912e-03
9.785999999999999560e-03
9.848000000000000850e-03
9.959000000000000838e-03
9.960999999999999369e-03
9.849000000000000116e-03
9.780000000000000498e-03
9.842000000000000054e-03
9.952000000000000776e-03
9.953000000000000042e-03
9.839999999999999789e-03
9.780999999999999764e-03
9.853000000000000647e-03
9.962000000000000369e-03
9.960000000000000103e-03
9.846999999999999850e-03
9.782000000000000764e-03
9.849000000000000116e-03
9.955999999999999572e-03
9.953999999999999307e-03
9.842999999999999319e-03
9.782000000000000764e-03
9.849000000000000116e-03
9.960000000000000103e-03
9.960999999999999369e-03
9.851999999999999647e-03
9.790999999999999356e-03
9.863999999999999505e-03
9.974000000000000227e-03
9.967999999999999430e-03
9.856000000000000177e-03
9.794999999999999887e-03
9.865000000000000505e-03
9.971999999999999961e-03
9.965999999999999165e-03
9.851999999999999647e-03
9.794999999999999887e-03
9.865999999999999770e-03
9.967000000000000165e-03
9.960000000000000103e-03
9.849000000000000116e-03
9.790999999999999356e-03
9.861999999999999239e-03
9.969000000000000430e-03
9.960999999999999369e-03
9.846999999999999850e-03
9.787999999999999826e-03
9.868000000000000035e-03
9.983000000000000554e-03
9.983000000000000554e-03
9.879000000000000628e-03
9.834000000000000727e-03
9.917000000000000468e-03
1.001499999999999960e-02
9.995000000000000412e-03
9.884000000000000424e-03
9.839000000000000523e-03
9.931999999999999856e-03
1.004200000000000058e-02
1.002100000000000039e-02
9.901000000000000079e-03
9.839999999999999789e-03
9.908999999999999406e-03
1.000299999999999974e-02
9.988000000000000350e-03
9.872999999999999832e-03
9.811999999999999542e-03
9.882000000000000159e-03
9.981999999999999554e-03
9.964999999999999900e-03
9.849999999999999381e-03
9.801999999999999949e-03
9.886999999999999955e-03
9.991999999999999146e-03
9.971999999999999961e-03
9.858999999999999708e-03
9.808000000000000745e-03
9.889999999999999486e-03
9.986000000000000085e-03
9.962999999999999634e-03
9.825000000000000400e-03
9.731999999999999332e-03
9.787000000000000560e-03
9.912000000000000671e-03
9.926000000000000795e-03
9.875000000000000097e-03
1.000900000000000054e-02
1.034400000000000076e-02
1.068999999999999985e-02
1.096300000000000052e-02
1.103799999999999920e-02
1.087800000000000052e-02
1.077000000000000006e-02
1.064200000000000042e-02
1.040899999999999985e-02
1.014900000000000004e-02
1.002399999999999992e-02
1.006199999999999976e-02
1.013099999999999938e-02
1.009999999999999960e-02
9.976999999999999758e-03
9.917999999999999733e-03
9.995000000000000412e-03
1.008000000000000042e-02
1.004400000000000084e-02
9.927000000000000060e-03
9.884999999999999690e-03
9.971999999999999961e-03
1.006600000000000029e-02
1.003300000000000025e-02
9.913999999999999202e-03
9.872999999999999832e-03
9.957999999999999838e-03
1.005200000000000017e-02
1.002499999999999919e-02
9.917000000000000468e-03
9.880999999999999159e-03
9.974000000000000227e-03
1.007300000000000036e-02
1.004900000000000064e-02
9.936000000000000387e-03
9.901000000000000079e-03
1.000000000000000021e-02
1.010400000000000013e-02
1.007500000000000062e-02
9.957000000000000572e-03
9.917999999999999733e-03
1.000200000000000047e-02
1.009200000000000028e-02
1.005499999999999970e-02
9.936000000000000387e-03
9.903000000000000344e-03
9.995999999999999677e-03
1.008399999999999921e-02
1.004799999999999964e-02
9.931000000000000591e-03
9.896000000000000282e-03
9.986000000000000085e-03
1.007399999999999962e-02
1.003700000000000078e-02
9.922000000000000264e-03
9.894000000000000017e-03
9.990999999999999881e-03
1.007699999999999915e-02
1.004299999999999984e-02
9.934999999999999387e-03
9.908999999999999406e-03
1.001299999999999933e-02
1.010999999999999920e-02
1.007800000000000015e-02
9.971999999999999961e-03
9.952000000000000776e-03
1.005900000000000023e-02
1.015500000000000083e-02
1.012399999999999932e-02
1.001999999999999939e-02
1.000400000000000074e-02
1.011199999999999946e-02
1.020500000000000053e-02
1.016899999999999922e-02
1.006199999999999976e-02
1.004299999999999984e-02
1.014699999999999977e-02
1.023199999999999978e-02
1.018600000000000061e-02
1.006800000000000056e-02
1.003500000000000052e-02
1.011899999999999952e-02
1.018999999999999941e-02
1.012900000000000085e-02
1.000200000000000047e-02
9.969000000000000430e-03
1.005600000000000070e-02
1.012599999999999958e-02
1.006400000000000003e-02
9.943999999999999714e-03
9.912999999999999937e-03
1.000400000000000074e-02
1.008299999999999995e-02
1.003099999999999999e-02
9.910000000000000406e-03
9.886999999999999955e-03
9.983000000000000554e-03
1.006199999999999976e-02
1.000799999999999954e-02
9.894999999999999282e-03
9.877000000000000363e-03
9.981000000000000288e-03
1.005799999999999923e-02
9.998999999999999208e-03
9.886000000000000690e-03
9.868999999999999301e-03
9.974999999999999492e-03
1.005699999999999997e-02
1.000599999999999927e-02
9.896000000000000282e-03
9.875000000000000097e-03
9.978000000000000758e-03
1.005999999999999950e-02
1.000500000000000000e-02
9.891999999999999751e-03
9.877000000000000363e-03
9.990000000000000616e-03
1.006899999999999983e-02
1.000999999999999980e-02
9.898999999999999813e-03
9.886999999999999955e-03
9.995999999999999677e-03
1.007599999999999989e-02
1.001900000000000013e-02
9.915999999999999467e-03
9.903000000000000344e-03
1.000500000000000000e-02
1.008399999999999921e-02
1.002699999999999945e-02
9.906999999999999140e-03
9.894999999999999282e-03
1.000599999999999927e-02
1.007399999999999962e-02
1.001400000000000033e-02
9.901999999999999344e-03
9.894999999999999282e-03
1.000299999999999974e-02
1.007899999999999942e-02
1.001600000000000060e-02
9.900000000000000813e-03
9.891000000000000486e-03
9.997999999999999943e-03
1.006699999999999956e-02
1.000500000000000000e-02
9.896000000000000282e-03
9.891000000000000486e-03
1.000400000000000074e-02
1.007800000000000015e-02
1.001600000000000060e-02
9.903000000000000344e-03
9.898999999999999813e-03
1.001499999999999960e-02
1.008599999999999948e-02
1.001699999999999986e-02
9.906999999999999140e-03
9.901000000000000079e-03
1.001100000000000080e-02
1.008000000000000042e-02
1.001499999999999960e-02
9.906999999999999140e-03
9.908000000000000140e-03
1.002100000000000039e-02
1.008799999999999975e-02
1.001999999999999939e-02
9.915999999999999467e-03
9.915999999999999467e-03
1.002600000000000019e-02
1.009099999999999928e-02
1.001999999999999939e-02
9.915000000000000202e-03
9.919999999999999998e-03
1.003800000000000005e-02
1.010699999999999966e-02
1.004000000000000031e-02
9.927000000000000060e-03
9.927000000000000060e-03
1.004299999999999984e-02
1.010299999999999913e-02
1.002800000000000046e-02
9.920999999999999264e-03
9.931999999999999856e-03
1.004700000000000037e-02
1.010899999999999993e-02
1.003500000000000052e-02
9.919000000000000733e-03
9.929999999999999591e-03
1.004599999999999937e-02
1.010600000000000040e-02
1.003399999999999952e-02
9.927000000000000060e-03
9.933000000000000856e-03
1.004799999999999964e-02
1.011100000000000020e-02
1.003899999999999931e-02
9.938000000000000653e-03
9.946999999999999245e-03
1.006400000000000003e-02
1.011399999999999973e-02
1.003599999999999978e-02
9.931999999999999856e-03
9.945000000000000714e-03
1.006400000000000003e-02
1.012200000000000079e-02
1.004599999999999937e-02
9.941999999999999449e-03
9.955999999999999572e-03
1.006899999999999983e-02
1.012300000000000005e-02
1.004500000000000011e-02
9.938999999999999918e-03
9.952000000000000776e-03
1.006600000000000029e-02
1.011599999999999999e-02
1.003700000000000078e-02
9.941000000000000184e-03
9.960000000000000103e-03
1.007699999999999915e-02
1.012599999999999958e-02
1.004200000000000058e-02
9.941000000000000184e-03
9.959000000000000838e-03
1.007500000000000062e-02
1.012200000000000079e-02
1.004200000000000058e-02
9.943999999999999714e-03
9.964999999999999900e-03
1.008399999999999921e-02
1.013400000000000065e-02
1.005299999999999944e-02
9.955999999999999572e-03
9.979000000000000023e-03
1.009200000000000028e-02
1.014199999999999997e-02
1.005400000000000044e-02
9.960000000000000103e-03
9.976000000000000492e-03
1.008799999999999975e-02
1.014100000000000071e-02
1.005699999999999997e-02
9.955999999999999572e-03
9.974999999999999492e-03
1.009400000000000054e-02
1.014100000000000071e-02
1.005499999999999970e-02
9.960000000000000103e-03
9.981999999999999554e-03
1.009700000000000007e-02
1.014600000000000050e-02
1.005900000000000023e-02
9.964000000000000634e-03
9.997000000000000677e-03
1.010699999999999966e-02
1.014800000000000077e-02
1.006100000000000050e-02
9.967000000000000165e-03
9.990999999999999881e-03
1.010600000000000040e-02
1.014999999999999930e-02
1.007199999999999936e-02
9.991999999999999146e-03
1.003300000000000025e-02
1.015199999999999957e-02
1.019699999999999947e-02
1.010400000000000013e-02
9.997000000000000677e-03
1.002699999999999945e-02
1.015300000000000057e-02
1.020599999999999979e-02
1.013299999999999965e-02
1.003599999999999978e-02
1.005799999999999923e-02
1.016599999999999969e-02
1.018999999999999941e-02
1.008900000000000075e-02
9.997000000000000677e-03
1.003000000000000072e-02
1.013999999999999971e-02
1.016399999999999942e-02
1.006400000000000003e-02
9.971000000000000696e-03
1.000099999999999947e-02
1.011399999999999973e-02
1.015100000000000030e-02
1.005699999999999997e-02
9.965999999999999165e-03
1.000000000000000021e-02
1.011699999999999926e-02
1.015899999999999963e-02
1.006300000000000076e-02
9.969999999999999696e-03
9.988999999999999616e-03
1.005600000000000070e-02
1.004999999999999991e-02
9.962999999999999634e-03
9.900000000000000813e-03
9.976000000000000492e-03
1.024699999999999916e-02
1.052799999999999916e-02
1.068799999999999958e-02
1.090099999999999923e-02
1.118500000000000050e-02
1.122500000000000060e-02
1.107400000000000051e-02
1.076799999999999979e-02
1.046099999999999981e-02
1.033599999999999970e-02
1.035100000000000083e-02
1.031499999999999952e-02
1.017799999999999955e-02
1.007899999999999942e-02
1.011500000000000073e-02
1.021599999999999939e-02
1.022600000000000071e-02
1.011699999999999926e-02
1.002499999999999919e-02
1.006100000000000050e-02
1.016899999999999922e-02
1.019300000000000067e-02
1.009099999999999928e-02
1.000700000000000027e-02
1.004700000000000037e-02
1.015800000000000036e-02
1.017700000000000028e-02
1.007300000000000036e-02
9.991999999999999146e-03
1.003800000000000005e-02
1.015300000000000057e-02
1.017400000000000075e-02
1.007399999999999962e-02
9.997000000000000677e-03
1.004400000000000084e-02
1.016099999999999989e-02
1.018299999999999934e-02
1.008399999999999921e-02
1.001100000000000080e-02
1.006600000000000029e-02
1.018400000000000034e-02
1.021299999999999986e-02
1.010999999999999920e-02
1.003399999999999952e-02
1.008500000000000021e-02
1.019699999999999947e-02
1.021700000000000039e-02
1.010699999999999966e-02
1.003300000000000025e-02
1.008900000000000075e-02
1.020399999999999953e-02
1.021999999999999992e-02
1.010899999999999993e-02
1.002800000000000046e-02
1.008299999999999995e-02
1.019399999999999994e-02
1.020300000000000026e-02
1.010100000000000060e-02
1.002899999999999972e-02
1.008900000000000075e-02
1.020899999999999933e-02
1.022499999999999971e-02
1.012300000000000005e-02
1.005499999999999970e-02
1.011899999999999952e-02
1.023699999999999957e-02
1.025299999999999996e-02
1.015600000000000010e-02
1.009400000000000054e-02
1.015899999999999963e-02
1.027999999999999921e-02
1.029700000000000060e-02
1.019699999999999947e-02
1.013599999999999918e-02
1.020199999999999926e-02
1.032100000000000031e-02
1.033700000000000070e-02
1.023600000000000031e-02
1.016199999999999916e-02
1.021700000000000039e-02
1.031800000000000078e-02
1.031499999999999952e-02
1.019399999999999994e-02
1.010800000000000066e-02
1.015300000000000057e-02
1.024800000000000016e-02
1.023699999999999957e-02
1.011199999999999946e-02
1.003599999999999978e-02
1.008299999999999995e-02
1.018100000000000081e-02
1.017799999999999955e-02
1.006100000000000050e-02
9.988999999999999616e-03
1.004599999999999937e-02
1.015500000000000083e-02
1.015300000000000057e-02
1.004200000000000058e-02
9.972999999999999227e-03
1.003599999999999978e-02
1.013799999999999944e-02
1.013700000000000018e-02
1.002399999999999992e-02
9.953999999999999307e-03
1.001999999999999939e-02
1.013000000000000012e-02
1.012700000000000058e-02
1.001699999999999986e-02
9.957999999999999838e-03
1.002899999999999972e-02
1.013499999999999991e-02
1.013000000000000012e-02
1.001600000000000060e-02
9.950999999999999776e-03
1.002100000000000039e-02
1.013200000000000038e-02
1.013000000000000012e-02
1.001600000000000060e-02
9.957999999999999838e-03
1.003099999999999999e-02
1.013999999999999971e-02
1.013599999999999918e-02
1.002399999999999992e-02
9.967999999999999430e-03
1.004000000000000031e-02
1.013999999999999971e-02
1.013000000000000012e-02
1.002100000000000039e-02
9.964999999999999900e-03
1.003700000000000078e-02
1.013900000000000044e-02
1.013000000000000012e-02
1.001900000000000013e-02
9.962999999999999634e-03
1.004000000000000031e-02
1.014400000000000024e-02
1.013299999999999965e-02
1.002199999999999966e-02
9.969000000000000430e-03
1.004299999999999984e-02
1.014699999999999977e-02
1.013700000000000018e-02
1.002199999999999966e-02
9.967999999999999430e-03
1.004299999999999984e-02
1.014499999999999950e-02
1.013700000000000018e-02
1.002499999999999919e-02
9.971999999999999961e-03
1.004900000000000064e-02
1.014999999999999930e-02
1.013599999999999918e-02
1.001999999999999939e-02
9.971000000000000696e-03
1.005299999999999944e-02
1.015500000000000083e-02
1.013599999999999918e-02
1.002100000000000039e-02
9.969000000000000430e-03
1.004900000000000064e-02
1.014900000000000004e-02
1.013000000000000012e-02
1.001900000000000013e-02
9.969999999999999696e-03
1.005200000000000017e-02
1.015300000000000057e-02
1.013599999999999918e-02
1.002499999999999919e-02
9.976999999999999758e-03
1.005699999999999997e-02
1.016099999999999989e-02
1.014499999999999950e-02
1.003000000000000072e-02
9.983999999999999819e-03
1.007100000000000009e-02
1.016599999999999969e-02
1.014800000000000077e-02
1.003399999999999952e-02
9.986999999999999350e-03
1.007000000000000083e-02
1.016700000000000069e-02
1.014900000000000004e-02
1.003599999999999978e-02
9.993999999999999412e-03
1.007599999999999989e-02
1.017000000000000022e-02
1.014600000000000050e-02
1.003199999999999925e-02
9.993999999999999412e-03
1.007899999999999942e-02
1.017099999999999949e-02
1.014499999999999950e-02
1.003500000000000052e-02
9.995000000000000412e-03
1.008000000000000042e-02
1.017200000000000049e-02
1.014699999999999977e-02
1.003399999999999952e-02
9.993999999999999412e-03
1.008000000000000042e-02
1.017799999999999955e-02
1.015199999999999957e-02
1.003500000000000052e-02
9.995999999999999677e-03
1.008200000000000068e-02
1.017700000000000028e-02
1.015199999999999957e-02
1.003700000000000078e-02
9.998999999999999208e-03
1.008700000000000048e-02
1.018400000000000034e-02
1.015300000000000057e-02
1.004200000000000058e-02
1.000900000000000054e-02
1.009400000000000054e-02
1.018400000000000034e-02
1.015300000000000057e-02
1.004000000000000031e-02
1.000400000000000074e-02
1.009499999999999981e-02
1.018400000000000034e-02
1.015199999999999957e-02
1.003700000000000078e-02
1.000299999999999974e-02
1.009799999999999934e-02
1.018699999999999987e-02
1.014900000000000004e-02
1.003399999999999952e-02
1.000000000000000021e-02
1.009600000000000081e-02
1.018799999999999914e-02
1.015300000000000057e-02
1.003700000000000078e-02
1.000400000000000074e-02
1.009900000000000034e-02
1.019199999999999967e-02
1.015300000000000057e-02
1.004299999999999984e-02
1.001900000000000013e-02
1.011899999999999952e-02
1.020599999999999979e-02
1.016300000000000016e-02
1.005200000000000017e-02
1.002399999999999992e-02
1.012099999999999979e-02
1.020700000000000079e-02
1.016700000000000069e-02
1.005400000000000044e-02
1.003000000000000072e-02
1.012500000000000032e-02
1.021299999999999986e-02
1.017200000000000049e-02
1.006199999999999976e-02
1.003700000000000078e-02
1.013599999999999918e-02
1.021999999999999992e-02
1.017500000000000002e-02
1.006499999999999929e-02
1.004099999999999958e-02
1.013999999999999971e-02
1.022400000000000045e-02
1.017999999999999981e-02
1.007399999999999962e-02
1.006400000000000003e-02
1.017200000000000049e-02
1.026099999999999929e-02
1.022299999999999945e-02
1.010999999999999920e-02
1.008299999999999995e-02
1.018100000000000081e-02
1.027199999999999988e-02
1.024300000000000037e-02
1.014900000000000004e-02
1.013200000000000038e-02
1.022299999999999945e-02
1.029099999999999980e-02
1.023400000000000004e-02
1.011300000000000046e-02
1.009000000000000001e-02
1.019399999999999994e-02
1.026700000000000008e-02
1.020599999999999979e-02
1.008599999999999948e-02
1.007000000000000083e-02
1.017400000000000075e-02
1.024899999999999943e-02
1.019899999999999973e-02
1.008900000000000075e-02
1.007199999999999936e-02
1.017599999999999928e-02
1.025200000000000070e-02
1.019600000000000020e-02
1.008599999999999948e-02
1.007199999999999936e-02
1.016300000000000016e-02
1.019899999999999973e-02
1.009799999999999934e-02
9.986999999999999350e-03
9.997000000000000677e-03
1.013000000000000012e-02
1.033300000000000017e-02
1.052699999999999990e-02
1.068700000000000032e-02
1.098200000000000044e-02
1.137299999999999943e-02
1.141400000000000053e-02
1.118899999999999929e-02
1.088100000000000005e-02
1.064099999999999942e-02
1.056600000000000074e-02
1.052100000000000084e-02
1.039699999999999999e-02
1.024699999999999916e-02
1.021799999999999965e-02
1.031499999999999952e-02
1.037399999999999954e-02
1.030200000000000039e-02
1.017999999999999981e-02
1.016799999999999995e-02
1.027100000000000062e-02
1.033500000000000044e-02
1.027100000000000062e-02
1.015899999999999963e-02
1.014800000000000077e-02
1.025000000000000043e-02
1.031800000000000078e-02
1.025599999999999949e-02
1.014600000000000050e-02
1.014499999999999950e-02
1.024899999999999943e-02
1.031400000000000025e-02
1.025200000000000070e-02
1.014100000000000071e-02
1.014199999999999997e-02
1.025399999999999923e-02
1.031800000000000078e-02
1.025099999999999970e-02
1.013999999999999971e-02
1.014100000000000071e-02
1.025200000000000070e-02
1.031800000000000078e-02
1.025000000000000043e-02
1.014400000000000024e-02
1.014800000000000077e-02
1.026099999999999929e-02
1.033599999999999970e-02
1.027999999999999921e-02
1.018600000000000061e-02
1.019100000000000041e-02
1.029599999999999960e-02
1.035799999999999915e-02
1.028399999999999974e-02
1.017400000000000075e-02
1.017700000000000028e-02
1.028600000000000000e-02
1.034500000000000003e-02
1.027299999999999915e-02
1.016899999999999922e-02
1.018200000000000008e-02
1.029500000000000033e-02
1.035900000000000015e-02
1.029599999999999960e-02
1.020399999999999953e-02
1.021700000000000039e-02
1.033099999999999991e-02
1.040100000000000052e-02
1.033799999999999997e-02
1.024300000000000037e-02
1.025900000000000076e-02
1.037500000000000054e-02
1.044499999999999942e-02
1.038799999999999966e-02
1.029700000000000060e-02
1.031800000000000078e-02
1.044299999999999916e-02
1.050799999999999998e-02
1.043799999999999936e-02
1.034099999999999950e-02
1.035299999999999936e-02
1.046300000000000008e-02
1.051099999999999951e-02
1.041899999999999944e-02
1.030400000000000066e-02
1.030200000000000039e-02
1.039400000000000046e-02
1.043200000000000030e-02
1.033899999999999923e-02
1.022099999999999918e-02
1.021700000000000039e-02
1.031100000000000072e-02
1.034799999999999956e-02
1.026099999999999929e-02
1.015399999999999983e-02
1.016500000000000042e-02
1.027299999999999915e-02
1.031999999999999931e-02
1.024000000000000084e-02
1.013700000000000018e-02
1.014699999999999977e-02
1.025799999999999976e-02
1.030700000000000019e-02
1.022400000000000045e-02
1.012799999999999985e-02
1.014600000000000050e-02
1.025399999999999923e-02
1.030299999999999966e-02
1.022099999999999918e-02
1.012300000000000005e-02
1.014299999999999924e-02
1.026099999999999929e-02
1.030599999999999919e-02
1.022400000000000045e-02
1.012900000000000085e-02
1.014699999999999977e-02
1.026000000000000002e-02
1.030499999999999992e-02
1.022200000000000018e-02
1.012700000000000058e-02
1.014900000000000004e-02
1.026299999999999955e-02
1.030400000000000066e-02
1.021700000000000039e-02
1.012099999999999979e-02
1.014299999999999924e-02
1.025799999999999976e-02
1.030499999999999992e-02
1.022099999999999918e-02
1.012300000000000005e-02
1.014999999999999930e-02
1.026299999999999955e-02
1.030299999999999966e-02
1.021400000000000086e-02
1.011899999999999952e-02
1.014999999999999930e-02
1.026200000000000029e-02
1.029900000000000086e-02
1.021200000000000059e-02
1.012099999999999979e-02
1.015199999999999957e-02
1.026999999999999962e-02
1.031100000000000072e-02
1.022099999999999918e-02
1.012900000000000085e-02
1.015899999999999963e-02
1.027100000000000062e-02
1.030700000000000019e-02
1.021500000000000012e-02
1.012200000000000079e-02
1.014800000000000077e-02
1.026099999999999929e-02
1.029700000000000060e-02
1.020899999999999933e-02
1.011899999999999952e-02
1.014400000000000024e-02
1.026099999999999929e-02
1.030000000000000013e-02
1.020700000000000079e-02
1.011599999999999999e-02
1.014999999999999930e-02
1.026499999999999982e-02
1.029799999999999986e-02
1.020100000000000000e-02
1.011199999999999946e-02
1.014800000000000077e-02
1.026200000000000029e-02
1.029599999999999960e-02
1.020199999999999926e-02
1.011800000000000026e-02
1.015899999999999963e-02
1.027100000000000062e-02
1.030299999999999966e-02
1.020599999999999979e-02
1.011500000000000073e-02
1.015399999999999983e-02
1.027499999999999941e-02
1.030099999999999939e-02
1.020300000000000026e-02
1.011599999999999999e-02
1.016000000000000063e-02
1.027899999999999994e-02
1.030799999999999945e-02
1.021000000000000033e-02
1.012300000000000005e-02
1.016399999999999942e-02
1.027800000000000068e-02
1.030400000000000066e-02
1.020700000000000079e-02
1.012599999999999958e-02
1.016799999999999995e-02
1.027899999999999994e-02
1.030599999999999919e-02
1.020599999999999979e-02
1.011599999999999999e-02
1.016199999999999916e-02
1.028100000000000021e-02
1.030599999999999919e-02
1.020599999999999979e-02
1.012300000000000005e-02
1.016700000000000069e-02
1.027699999999999968e-02
1.030499999999999992e-02
1.020500000000000053e-02
1.012200000000000079e-02
1.016899999999999922e-02
1.028300000000000047e-02
1.030599999999999919e-02
1.020399999999999953e-02
1.012500000000000032e-02
1.016899999999999922e-02
1.028199999999999947e-02
1.030200000000000039e-02
1.019800000000000047e-02
1.012200000000000079e-02
1.017200000000000049e-02
1.028500000000000074e-02
1.030499999999999992e-02
1.020300000000000026e-02
1.012599999999999958e-02
1.017799999999999955e-02
1.029000000000000054e-02
1.030900000000000045e-02
1.020899999999999933e-02
1.013099999999999938e-02
1.018499999999999961e-02
1.029900000000000086e-02
1.031999999999999931e-02
1.021200000000000059e-02
1.013499999999999991e-02
1.018499999999999961e-02
1.029799999999999986e-02
1.031299999999999925e-02
1.021099999999999959e-02
1.013999999999999971e-02
1.019399999999999994e-02
1.030700000000000019e-02
1.032100000000000031e-02
1.021799999999999965e-02
1.014900000000000004e-02
1.020700000000000079e-02
1.032199999999999958e-02
1.033099999999999991e-02
1.022499999999999971e-02
1.014699999999999977e-02
1.020599999999999979e-02
1.031800000000000078e-02
1.033199999999999917e-02
1.022600000000000071e-02
1.015199999999999957e-02
1.021700000000000039e-02
1.033000000000000064e-02
1.033899999999999923e-02
1.023600000000000031e-02
1.016399999999999942e-02
1.022499999999999971e-02
1.033700000000000070e-02
1.035499999999999962e-02
1.025799999999999976e-02
1.019199999999999967e-02
1.025700000000000049e-02
1.037599999999999981e-02
1.038200000000000060e-02
1.026400000000000055e-02
1.019899999999999973e-02
1.027600000000000041e-02
1.040300000000000079e-02
1.042500000000000024e-02
1.031499999999999952e-02
1.023499999999999931e-02
1.028199999999999947e-02
1.038399999999999913e-02
1.038500000000000013e-02
1.027199999999999988e-02
1.020100000000000000e-02
1.025200000000000070e-02
1.035699999999999989e-02
1.035400000000000036e-02
1.024300000000000037e-02
1.017599999999999928e-02
1.024199999999999937e-02
1.034999999999999983e-02
1.035100000000000083e-02
1.024100000000000010e-02
1.018100000000000081e-02
1.024899999999999943e-02
1.035400000000000036e-02
1.035600000000000062e-02
1.023899999999999984e-02
1.015100000000000030e-02
1.016799999999999995e-02
1.023499999999999931e-02
1.025099999999999970e-02
1.015399999999999983e-02
1.014999999999999930e-02
1.040899999999999985e-02
1.078800000000000071e-02
1.106000000000000039e-02
1.128599999999999916e-02
1.140500000000000021e-02
1.136400000000000084e-02
1.129499999999999948e-02
1.106799999999999971e-02
1.073600000000000075e-02
1.051799999999999957e-02
1.049899999999999965e-02
1.055000000000000035e-02
1.050700000000000071e-02
1.037899999999999934e-02
1.031999999999999931e-02
1.038700000000000040e-02
1.047799999999999947e-02
1.045899999999999955e-02
1.033899999999999923e-02
1.028399999999999974e-02
1.035600000000000062e-02
1.045100000000000022e-02
1.043600000000000083e-02
1.032100000000000031e-02
1.026700000000000008e-02
1.034099999999999950e-02
1.044299999999999916e-02
1.042799999999999977e-02
1.031400000000000025e-02
1.026000000000000002e-02
1.033899999999999923e-02
1.043799999999999936e-02
1.042299999999999997e-02
1.030700000000000019e-02
1.025299999999999996e-02
1.033500000000000044e-02
1.043499999999999983e-02
1.041899999999999944e-02
1.030499999999999992e-02
1.025299999999999996e-02
1.033500000000000044e-02
1.043600000000000083e-02
1.041500000000000065e-02
1.030099999999999939e-02
1.025399999999999923e-02
1.033700000000000070e-02
1.043700000000000010e-02
1.041899999999999944e-02
1.030299999999999966e-02
1.025799999999999976e-02
1.034599999999999929e-02
1.044499999999999942e-02
1.042500000000000024e-02
1.031400000000000025e-02
1.026700000000000008e-02
1.035499999999999962e-02
1.045800000000000028e-02
1.043900000000000036e-02
1.033500000000000044e-02
1.029200000000000080e-02
1.038299999999999987e-02
1.048499999999999953e-02
1.046700000000000061e-02
1.036300000000000068e-02
1.033199999999999917e-02
1.043200000000000030e-02
1.054000000000000076e-02
1.052699999999999990e-02
1.042299999999999997e-02
1.039200000000000020e-02
1.048699999999999979e-02
1.059799999999999978e-02
1.058699999999999919e-02
1.048400000000000026e-02
1.044600000000000042e-02
1.054100000000000002e-02
1.064499999999999995e-02
1.062199999999999950e-02
1.050799999999999998e-02
1.046300000000000008e-02
1.054500000000000055e-02
1.062600000000000003e-02
1.058500000000000066e-02
1.045399999999999975e-02
1.039400000000000046e-02
1.046700000000000061e-02
1.054100000000000002e-02
1.049100000000000033e-02
1.037000000000000074e-02
1.031900000000000005e-02
1.039799999999999926e-02
1.048600000000000053e-02
1.044600000000000042e-02
1.032100000000000031e-02
1.028100000000000021e-02
1.037000000000000074e-02
1.045899999999999955e-02
1.042599999999999950e-02
1.030400000000000066e-02
1.026600000000000082e-02
1.036300000000000068e-02
1.045699999999999928e-02
1.042200000000000071e-02
1.031100000000000072e-02
1.027899999999999994e-02
1.037300000000000028e-02
1.046300000000000008e-02
1.042500000000000024e-02
1.030700000000000019e-02
1.027600000000000041e-02
1.037000000000000074e-02
1.045899999999999955e-02
1.042000000000000044e-02
1.030400000000000066e-02
1.027199999999999988e-02
1.037100000000000001e-02
1.045699999999999928e-02
1.041800000000000018e-02
1.030200000000000039e-02
1.027299999999999915e-02
1.037000000000000074e-02
1.046300000000000008e-02
1.042500000000000024e-02
1.030799999999999945e-02
1.027899999999999994e-02
1.037399999999999954e-02
1.045800000000000028e-02
1.041500000000000065e-02
1.030000000000000013e-02
1.027899999999999994e-02
1.037399999999999954e-02
1.046200000000000081e-02
1.042099999999999971e-02
1.031199999999999999e-02
1.028699999999999927e-02
1.038599999999999940e-02
1.046799999999999987e-02
1.042500000000000024e-02
1.031400000000000025e-02
1.028899999999999954e-02
1.038799999999999966e-02
1.047000000000000014e-02
1.042399999999999924e-02
1.031499999999999952e-02
1.029200000000000080e-02
1.038999999999999993e-02
1.047099999999999941e-02
1.042500000000000024e-02
1.031400000000000025e-02
1.029700000000000060e-02
1.039400000000000046e-02
1.047299999999999967e-02
1.043000000000000003e-02
1.031900000000000005e-02
1.029700000000000060e-02
1.039499999999999973e-02
1.047299999999999967e-02
1.042200000000000071e-02
1.030700000000000019e-02
1.029099999999999980e-02
1.039699999999999999e-02
1.047799999999999947e-02
1.042700000000000050e-02
1.031100000000000072e-02
1.029700000000000060e-02
1.040199999999999979e-02
1.048100000000000073e-02
1.042900000000000077e-02
1.031699999999999978e-02
1.030200000000000039e-02
1.041199999999999938e-02
1.048900000000000006e-02
1.043499999999999983e-02
1.032399999999999984e-02
1.030599999999999919e-02
1.041100000000000012e-02
1.048699999999999979e-02
1.043400000000000057e-02
1.031999999999999931e-02
1.030999999999999972e-02
1.041800000000000018e-02
1.049600000000000012e-02
1.043799999999999936e-02
1.032600000000000011e-02
1.031199999999999999e-02
1.041800000000000018e-02
1.049100000000000033e-02
1.043799999999999936e-02
1.033399999999999944e-02
1.032500000000000084e-02
1.043499999999999983e-02
1.050399999999999945e-02
1.043999999999999963e-02
1.033000000000000064e-02
1.032399999999999984e-02
1.043400000000000057e-02
1.050500000000000045e-02
1.044400000000000016e-02
1.033599999999999970e-02
1.033000000000000064e-02
1.043999999999999963e-02
1.050899999999999924e-02
1.044600000000000042e-02
1.033899999999999923e-02
1.033700000000000070e-02
1.044600000000000042e-02
1.051599999999999931e-02
1.045300000000000049e-02
1.034799999999999956e-02
1.034799999999999956e-02
1.046000000000000055e-02
1.052999999999999943e-02
1.046599999999999961e-02
1.035499999999999962e-02
1.035400000000000036e-02
1.046399999999999934e-02
1.053399999999999996e-02
1.046899999999999914e-02
1.035799999999999915e-02
1.035499999999999962e-02
1.047200000000000041e-02
1.053600000000000023e-02
1.046599999999999961e-02
1.035799999999999915e-02
1.036100000000000042e-02
1.047499999999999994e-02
1.053699999999999949e-02
1.046599999999999961e-02
1.035999999999999942e-02
1.035999999999999942e-02
1.047099999999999941e-02
1.053600000000000023e-02
1.046799999999999987e-02
1.036499999999999921e-02
1.037100000000000001e-02
1.048600000000000053e-02
1.054800000000000008e-02
1.047799999999999947e-02
1.037199999999999928e-02
1.037300000000000028e-02
1.048299999999999926e-02
1.054399999999999955e-02
1.047099999999999941e-02
1.036600000000000021e-02
1.037700000000000081e-02
1.048400000000000026e-02
1.054199999999999929e-02
1.047200000000000041e-02
1.036699999999999948e-02
1.037899999999999934e-02
1.049600000000000012e-02
1.055200000000000062e-02
1.047200000000000041e-02
1.037300000000000028e-02
1.039099999999999920e-02
1.051400000000000078e-02
1.057199999999999980e-02
1.049899999999999965e-02
1.039900000000000026e-02
1.041100000000000012e-02
1.052100000000000084e-02
1.057699999999999960e-02
1.051299999999999978e-02
1.043000000000000003e-02
1.045800000000000028e-02
1.057400000000000007e-02
1.061499999999999944e-02
1.052799999999999916e-02
1.041800000000000018e-02
1.042700000000000050e-02
1.053399999999999996e-02
1.058300000000000039e-02
1.049100000000000033e-02
1.038200000000000060e-02
1.039499999999999973e-02
1.050700000000000071e-02
1.055099999999999962e-02
1.046899999999999914e-02
1.037300000000000028e-02
1.039400000000000046e-02
1.051099999999999951e-02
1.055500000000000015e-02
1.046899999999999914e-02
1.037300000000000028e-02
1.039299999999999946e-02
1.050399999999999945e-02
1.053499999999999923e-02
1.040100000000000052e-02
1.025900000000000076e-02
1.028800000000000027e-02
1.041399999999999965e-02
1.050000000000000065e-02
1.057800000000000060e-02
1.075699999999999920e-02
1.106599999999999945e-02
1.149599999999999927e-02
1.174000000000000044e-02
1.153999999999999991e-02
1.125999999999999918e-02
1.106900000000000071e-02
1.097399999999999938e-02
1.087100000000000045e-02
1.069999999999999944e-02
1.055200000000000062e-02
1.054199999999999929e-02
1.063300000000000009e-02
1.066499999999999913e-02
1.057400000000000007e-02
1.047000000000000014e-02
1.048499999999999953e-02
1.059900000000000078e-02
1.063799999999999989e-02
1.054199999999999929e-02
1.044199999999999989e-02
1.047299999999999967e-02
1.058800000000000019e-02
1.062500000000000076e-02
1.053699999999999949e-02
1.043999999999999963e-02
1.046399999999999934e-02
1.057699999999999960e-02
1.061199999999999991e-02
1.052200000000000010e-02
1.043000000000000003e-02
1.046500000000000034e-02
1.057899999999999986e-02
1.061699999999999970e-02
1.052799999999999916e-02
1.043799999999999936e-02
1.046799999999999987e-02
1.057899999999999986e-02
1.061299999999999917e-02
1.052699999999999990e-02
1.043299999999999957e-02
1.046500000000000034e-02
1.058100000000000013e-02
1.061699999999999970e-02
1.052200000000000010e-02
1.043600000000000083e-02
1.047499999999999994e-02
1.059399999999999925e-02
1.062800000000000029e-02
1.053300000000000070e-02
1.044999999999999922e-02
1.048900000000000006e-02
1.060600000000000084e-02
1.064099999999999942e-02
1.054700000000000082e-02
1.046300000000000008e-02
1.050599999999999971e-02
1.063300000000000009e-02
1.067099999999999993e-02
1.058100000000000013e-02
1.050199999999999918e-02
1.055200000000000062e-02
1.067700000000000073e-02
1.071500000000000057e-02
1.062899999999999956e-02
1.055399999999999915e-02
1.060499999999999984e-02
1.073600000000000075e-02
1.077799999999999939e-02
1.068799999999999958e-02
1.061199999999999991e-02
1.066499999999999913e-02
1.079100000000000024e-02
1.083199999999999961e-02
1.074400000000000008e-02
1.066499999999999913e-02
1.071000000000000077e-02
1.082999999999999935e-02
1.084700000000000074e-02
1.073400000000000049e-02
1.063700000000000062e-02
1.066499999999999913e-02
1.075899999999999947e-02
1.076099999999999973e-02
1.063899999999999915e-02
1.053800000000000049e-02
1.056600000000000074e-02
1.066699999999999940e-02
1.067700000000000073e-02
1.056600000000000074e-02
1.047299999999999967e-02
1.051999999999999984e-02
1.062899999999999956e-02
1.064499999999999995e-02
1.053899999999999976e-02
1.045500000000000075e-02
1.049699999999999939e-02
1.060700000000000011e-02
1.061899999999999997e-02
1.051099999999999951e-02
1.042799999999999977e-02
1.048100000000000073e-02
1.059299999999999999e-02
1.061600000000000044e-02
1.051999999999999984e-02
1.043600000000000083e-02
1.048400000000000026e-02
1.059599999999999952e-02
1.061299999999999917e-02
1.050899999999999924e-02
1.043600000000000083e-02
1.048900000000000006e-02
1.059399999999999925e-02
1.060499999999999984e-02
1.050500000000000045e-02
1.043499999999999983e-02
1.048999999999999932e-02
1.060000000000000005e-02
1.061499999999999944e-02
1.051200000000000051e-02
1.043299999999999957e-02
1.048999999999999932e-02
1.060299999999999958e-02
1.061299999999999917e-02
1.050399999999999945e-02
1.042599999999999950e-02
1.048800000000000079e-02
1.060200000000000031e-02
1.061800000000000070e-02
1.051200000000000051e-02
1.043600000000000083e-02
1.049199999999999959e-02
1.060299999999999958e-02
1.061100000000000064e-02
1.050399999999999945e-02
1.043200000000000030e-02
1.049100000000000033e-02
1.060099999999999931e-02
1.060799999999999937e-02
1.050500000000000045e-02
1.043600000000000083e-02
1.049800000000000039e-02
1.060700000000000011e-02
1.060900000000000037e-02
1.049800000000000039e-02
1.042900000000000077e-02
1.049199999999999959e-02
1.060499999999999984e-02
1.061100000000000064e-02
1.050099999999999992e-02
1.043200000000000030e-02
1.049199999999999959e-02
1.059799999999999978e-02
1.060200000000000031e-02
1.049300000000000059e-02
1.042399999999999924e-02
1.048800000000000079e-02
1.059799999999999978e-02
1.060000000000000005e-02
1.048999999999999932e-02
1.042500000000000024e-02
1.049100000000000033e-02
1.059900000000000078e-02
1.060099999999999931e-02
1.048900000000000006e-02
1.042299999999999997e-02
1.048699999999999979e-02
1.059500000000000025e-02
1.059299999999999999e-02
1.048499999999999953e-02
1.042200000000000071e-02
1.048900000000000006e-02
1.059599999999999952e-02
1.059799999999999978e-02
1.048800000000000079e-02
1.042099999999999971e-02
1.049199999999999959e-02
1.060299999999999958e-02
1.060200000000000031e-02
1.048900000000000006e-02
1.043099999999999930e-02
1.049899999999999965e-02
1.060600000000000084e-02
1.060499999999999984e-02
1.049500000000000086e-02
1.042900000000000077e-02
1.050000000000000065e-02
1.060600000000000084e-02
1.059900000000000078e-02
1.048499999999999953e-02
1.042700000000000050e-02
1.050000000000000065e-02
1.060900000000000037e-02
1.060200000000000031e-02
1.048600000000000053e-02
1.042700000000000050e-02
1.050099999999999992e-02
1.060299999999999958e-02
1.059599999999999952e-02
1.048400000000000026e-02
1.043400000000000057e-02
1.050599999999999971e-02
1.060200000000000031e-02
1.059000000000000045e-02
1.048200000000000000e-02
1.042799999999999977e-02
1.050199999999999918e-02
1.060600000000000084e-02
1.059399999999999925e-02
1.048499999999999953e-02
1.043200000000000030e-02
1.051000000000000024e-02
1.060600000000000084e-02
1.058699999999999919e-02
1.047799999999999947e-02
1.042799999999999977e-02
1.050599999999999971e-02
1.060700000000000011e-02
1.059200000000000072e-02
1.047599999999999920e-02
1.042399999999999924e-02
1.050500000000000045e-02
1.060600000000000084e-02
1.058699999999999919e-02
1.047099999999999941e-02
1.041599999999999991e-02
1.049899999999999965e-02
1.059799999999999978e-02
1.058100000000000013e-02
1.047499999999999994e-02
1.044100000000000063e-02
1.052999999999999943e-02
1.063799999999999989e-02
1.062600000000000003e-02
1.050799999999999998e-02
1.045300000000000049e-02
1.053399999999999996e-02
1.064900000000000048e-02
1.064799999999999948e-02
1.055399999999999915e-02
1.051400000000000078e-02
1.058699999999999919e-02
1.067199999999999920e-02
1.063099999999999982e-02
1.051099999999999951e-02
1.046399999999999934e-02
1.054700000000000082e-02
1.062899999999999956e-02
1.058699999999999919e-02
1.046300000000000008e-02
1.042099999999999971e-02
1.050799999999999998e-02
1.060000000000000005e-02
1.057100000000000053e-02
1.046099999999999981e-02
1.041899999999999944e-02
1.050899999999999924e-02
1.060099999999999931e-02
1.057199999999999980e-02
1.046000000000000055e-02
1.041599999999999991e-02
1.047200000000000041e-02
1.051599999999999931e-02
1.045699999999999928e-02
1.036699999999999948e-02
1.034000000000000023e-02
1.048999999999999932e-02
1.076700000000000053e-02
1.101800000000000002e-02
1.118599999999999976e-02
1.146299999999999923e-02
1.169599999999999980e-02
1.163900000000000004e-02
1.140799999999999974e-02
1.106000000000000039e-02
1.081200000000000043e-02
1.076500000000000026e-02
1.078199999999999992e-02
1.070699999999999950e-02
1.056900000000000027e-02
1.052299999999999937e-02
1.061400000000000017e-02
1.069999999999999944e-02
1.065100000000000074e-02
1.052299999999999937e-02
1.048400000000000026e-02
1.057199999999999980e-02
1.065699999999999981e-02
1.062100000000000023e-02
1.050799999999999998e-02
1.047700000000000020e-02
1.056999999999999953e-02
1.065900000000000007e-02
1.061999999999999923e-02
1.050300000000000018e-02
1.047799999999999947e-02
1.057100000000000053e-02
1.065499999999999954e-02
1.061600000000000044e-02
1.050199999999999918e-02
1.047299999999999967e-02
1.056600000000000074e-02
1.065100000000000074e-02
1.061100000000000064e-02
1.049699999999999939e-02
1.047000000000000014e-02
1.056499999999999974e-02
1.064700000000000021e-02
1.060499999999999984e-02
1.049699999999999939e-02
1.046899999999999914e-02
1.056999999999999953e-02
1.065499999999999954e-02
1.060799999999999937e-02
1.048900000000000006e-02
1.046799999999999987e-02
1.056900000000000027e-02
1.065100000000000074e-02
1.060799999999999937e-02
1.049899999999999965e-02
1.047599999999999920e-02
1.058199999999999939e-02
1.067000000000000066e-02
1.061999999999999923e-02
1.050899999999999924e-02
1.048900000000000006e-02
1.059399999999999925e-02
1.068400000000000079e-02
1.064400000000000068e-02
1.053899999999999976e-02
1.052600000000000063e-02
1.064000000000000015e-02
1.072900000000000069e-02
1.069100000000000085e-02
1.059099999999999972e-02
1.058300000000000039e-02
1.069200000000000012e-02
1.078400000000000018e-02
1.074400000000000008e-02
1.063899999999999915e-02
1.063200000000000083e-02
1.074999999999999914e-02
1.084099999999999994e-02
1.079500000000000078e-02
1.068500000000000005e-02
1.066699999999999940e-02
1.076500000000000026e-02
1.083399999999999988e-02
1.076700000000000053e-02
1.063899999999999915e-02
1.060799999999999937e-02
1.069999999999999944e-02
1.076000000000000047e-02
1.068500000000000005e-02
1.055799999999999968e-02
1.053100000000000043e-02
1.062500000000000076e-02
1.068799999999999958e-02
1.062100000000000023e-02
1.050599999999999971e-02
1.048800000000000079e-02
1.058599999999999992e-02
1.065600000000000054e-02
1.059500000000000025e-02
1.048100000000000073e-02
1.046700000000000061e-02
1.056900000000000027e-02
1.064200000000000042e-02
1.058899999999999945e-02
1.047700000000000020e-02
1.047099999999999941e-02
1.057899999999999986e-02
1.064499999999999995e-02
1.058699999999999919e-02
1.047900000000000047e-02
1.047200000000000041e-02
1.058300000000000039e-02
1.065400000000000028e-02
1.059200000000000072e-02
1.048200000000000000e-02
1.047499999999999994e-02
1.057699999999999960e-02
1.064400000000000068e-02
1.058100000000000013e-02
1.047099999999999941e-02
1.046700000000000061e-02
1.057899999999999986e-02
1.064700000000000021e-02
1.058599999999999992e-02
1.047700000000000020e-02
1.047299999999999967e-02
1.058199999999999939e-02
1.064700000000000021e-02
1.057800000000000060e-02
1.047299999999999967e-02
1.047400000000000067e-02
1.058599999999999992e-02
1.065699999999999981e-02
1.059399999999999925e-02
1.048699999999999979e-02
1.048299999999999926e-02
1.059099999999999972e-02
1.065800000000000081e-02
1.059000000000000045e-02
1.048100000000000073e-02
1.048600000000000053e-02
1.059799999999999978e-02
1.065800000000000081e-02
1.058599999999999992e-02
1.047900000000000047e-02
1.048400000000000026e-02
1.058899999999999945e-02
1.065600000000000054e-02
1.058699999999999919e-02
1.049300000000000059e-02
1.048499999999999953e-02
1.059299999999999999e-02
1.066100000000000034e-02
1.059500000000000025e-02
1.048800000000000079e-02
1.048999999999999932e-02
1.060200000000000031e-02
1.066899999999999966e-02
1.059599999999999952e-02
1.049399999999999986e-02
1.050099999999999992e-02
1.061100000000000064e-02
1.067000000000000066e-02
1.059500000000000025e-02
1.049100000000000033e-02
1.050000000000000065e-02
1.061499999999999944e-02
1.067399999999999946e-02
1.059799999999999978e-02
1.048999999999999932e-02
1.050300000000000018e-02
1.061800000000000070e-02
1.067500000000000046e-02
1.060299999999999958e-02
1.050099999999999992e-02
1.050899999999999924e-02
1.061800000000000070e-02
1.067700000000000073e-02
1.060200000000000031e-02
1.049800000000000039e-02
1.050799999999999998e-02
1.061800000000000070e-02
1.066899999999999966e-02
1.059299999999999999e-02
1.049399999999999986e-02
1.050399999999999945e-02
1.061999999999999923e-02
1.067399999999999946e-02
1.059299999999999999e-02
1.048699999999999979e-02
1.050000000000000065e-02
1.061499999999999944e-02
1.067000000000000066e-02
1.059200000000000072e-02
1.048999999999999932e-02
1.050700000000000071e-02
1.061699999999999970e-02
1.067099999999999993e-02
1.059099999999999972e-02
1.048900000000000006e-02
1.050700000000000071e-02
1.061999999999999923e-02
1.066800000000000040e-02
1.058599999999999992e-02
1.048299999999999926e-02
1.050199999999999918e-02
1.061299999999999917e-02
1.066399999999999987e-02
1.058199999999999939e-02
1.048200000000000000e-02
1.050199999999999918e-02
1.061600000000000044e-02
1.066199999999999960e-02
1.058000000000000086e-02
1.048699999999999979e-02
1.051000000000000024e-02
1.062300000000000050e-02
1.066600000000000013e-02
1.058000000000000086e-02
1.048400000000000026e-02
1.050899999999999924e-02
1.062199999999999950e-02
1.066100000000000034e-02
1.056999999999999953e-02
1.047299999999999967e-02
1.049899999999999965e-02
1.061600000000000044e-02
1.065499999999999954e-02
1.056400000000000047e-02
1.046899999999999914e-02
1.049800000000000039e-02
1.061499999999999944e-02
1.065499999999999954e-02
1.056999999999999953e-02
1.047599999999999920e-02
1.050399999999999945e-02
1.061899999999999997e-02
1.065900000000000007e-02
1.056900000000000027e-02
1.047700000000000020e-02
1.050500000000000045e-02
1.062399999999999976e-02
1.066399999999999987e-02
1.057199999999999980e-02
1.047900000000000047e-02
1.051500000000000004e-02
1.063599999999999962e-02
1.068099999999999952e-02
1.060400000000000058e-02
1.052600000000000063e-02
1.056900000000000027e-02
1.068400000000000079e-02
1.071599999999999983e-02
1.061699999999999970e-02
1.052499999999999963e-02
1.056900000000000027e-02
1.069999999999999944e-02
1.075300000000000041e-02
1.066300000000000060e-02
1.056299999999999947e-02
1.058800000000000019e-02
1.069900000000000018e-02
1.072299999999999989e-02
1.062199999999999950e-02
1.053100000000000043e-02
1.055700000000000041e-02
1.065600000000000054e-02
1.068200000000000052e-02
1.058000000000000086e-02
1.049100000000000033e-02
1.052999999999999943e-02
1.064599999999999921e-02
1.067500000000000046e-02
1.057800000000000060e-02
1.049100000000000033e-02
1.052699999999999990e-02
1.064400000000000068e-02
1.068099999999999952e-02
1.058000000000000086e-02
1.046899999999999914e-02
1.046599999999999961e-02
1.054100000000000002e-02
1.058699999999999919e-02
1.050599999999999971e-02
1.047599999999999920e-02
1.069600000000000065e-02
1.107499999999999978e-02
1.137400000000000043e-02
1.159899999999999994e-02
1.172100000000000052e-02
1.165500000000000043e-02
1.158700000000000008e-02
1.139399999999999961e-02
1.107200000000000024e-02
1.082600000000000055e-02
1.077700000000000012e-02
1.083600000000000015e-02
1.082699999999999982e-02
1.071100000000000003e-02
1.062100000000000023e-02
1.065200000000000001e-02
1.075300000000000041e-02
1.076900000000000079e-02
1.066399999999999987e-02
1.057699999999999960e-02
1.062100000000000023e-02
1.072999999999999995e-02
1.074899999999999987e-02
1.064599999999999921e-02
1.056600000000000074e-02
1.061299999999999917e-02
1.072200000000000063e-02
1.074499999999999934e-02
1.064299999999999968e-02
1.056400000000000047e-02
1.061100000000000064e-02
1.072799999999999969e-02
1.074199999999999981e-02
1.063700000000000062e-02
1.056099999999999921e-02
1.061299999999999917e-02
1.072500000000000016e-02
1.074899999999999987e-02
1.064900000000000048e-02
1.057400000000000007e-02
1.062800000000000029e-02
1.074499999999999934e-02
1.076099999999999973e-02
1.065400000000000028e-02
1.058100000000000013e-02
1.063399999999999936e-02
1.074400000000000008e-02
1.076099999999999973e-02
1.065600000000000054e-02
1.058399999999999966e-02
1.063500000000000036e-02
1.074400000000000008e-02
1.076000000000000047e-02
1.065499999999999954e-02
1.058100000000000013e-02
1.063599999999999962e-02
1.075199999999999941e-02
1.076200000000000073e-02
1.065999999999999934e-02
1.059200000000000072e-02
1.065400000000000028e-02
1.076599999999999953e-02
1.077900000000000039e-02
1.068500000000000005e-02
1.062600000000000003e-02
1.069600000000000065e-02
1.081200000000000043e-02
1.083300000000000061e-02
1.073799999999999928e-02
1.068000000000000026e-02
1.074800000000000061e-02
1.086999999999999945e-02
1.088599999999999984e-02
1.079399999999999978e-02
1.073700000000000002e-02
1.080500000000000037e-02
1.091999999999999915e-02
1.092800000000000021e-02
1.082299999999999929e-02
1.075100000000000014e-02
1.080200000000000084e-02
1.089999999999999997e-02
1.089299999999999990e-02
1.077000000000000006e-02
1.068099999999999952e-02
1.072200000000000063e-02
1.081200000000000043e-02
1.079800000000000031e-02
1.067500000000000046e-02
1.060200000000000031e-02
1.065200000000000001e-02
1.074800000000000061e-02
1.074199999999999981e-02
1.062899999999999956e-02
1.055999999999999994e-02
1.061899999999999997e-02
1.072099999999999963e-02
1.072000000000000036e-02
1.061199999999999991e-02
1.054599999999999982e-02
1.061100000000000064e-02
1.071599999999999983e-02
1.071800000000000010e-02
1.060700000000000011e-02
1.054300000000000029e-02
1.061299999999999917e-02
1.072099999999999963e-02
1.071800000000000010e-02
1.060499999999999984e-02
1.054300000000000029e-02
1.060900000000000037e-02
1.071399999999999957e-02
1.071399999999999957e-02
1.060400000000000058e-02
1.054000000000000076e-02
1.060700000000000011e-02
1.071399999999999957e-02
1.071100000000000003e-02
1.060000000000000005e-02
1.054100000000000002e-02
1.061199999999999991e-02
1.071899999999999936e-02
1.071300000000000030e-02
1.059900000000000078e-02
1.054199999999999929e-02
1.061699999999999970e-02
1.072099999999999963e-02
1.071500000000000057e-02
1.060400000000000058e-02
1.054399999999999955e-02
1.061899999999999997e-02
1.072599999999999942e-02
1.071100000000000003e-02
1.059900000000000078e-02
1.054100000000000002e-02
1.061699999999999970e-02
1.072200000000000063e-02
1.071199999999999930e-02
1.059799999999999978e-02
1.054000000000000076e-02
1.061299999999999917e-02
1.072000000000000036e-02
1.070499999999999924e-02
1.059200000000000072e-02
1.054199999999999929e-02
1.061999999999999923e-02
1.072299999999999989e-02
1.070600000000000024e-02
1.059099999999999972e-02
1.054199999999999929e-02
1.062399999999999976e-02
1.072599999999999942e-02
1.070899999999999977e-02
1.059599999999999952e-02
1.054599999999999982e-02
1.061999999999999923e-02
1.072000000000000036e-02
1.070499999999999924e-02
1.059099999999999972e-02
1.054300000000000029e-02
1.062300000000000050e-02
1.072500000000000016e-02
1.070800000000000050e-02
1.059500000000000025e-02
1.055099999999999962e-02
1.063300000000000009e-02
1.072700000000000042e-02
1.070600000000000024e-02
1.059599999999999952e-02
1.055599999999999941e-02
1.064200000000000042e-02
1.073700000000000002e-02
1.071300000000000030e-02
1.059599999999999952e-02
1.055500000000000015e-02
1.064400000000000068e-02
1.073799999999999928e-02
1.071500000000000057e-02
1.060099999999999931e-02
1.055999999999999994e-02
1.064599999999999921e-02
1.074199999999999981e-02
1.071899999999999936e-02
1.060600000000000084e-02
1.056200000000000021e-02
1.064700000000000021e-02
1.074100000000000055e-02
1.072000000000000036e-02
1.060700000000000011e-02
1.056400000000000047e-02
1.065100000000000074e-02
1.074600000000000034e-02
1.072200000000000063e-02
1.060999999999999964e-02
1.056499999999999974e-02
1.064999999999999974e-02
1.074899999999999987e-02
1.072399999999999916e-02
1.061100000000000064e-02
1.057199999999999980e-02
1.066300000000000060e-02
1.075500000000000067e-02
1.072900000000000069e-02
1.061400000000000017e-02
1.057499999999999933e-02
1.066199999999999960e-02
1.075100000000000014e-02
1.072000000000000036e-02
1.060700000000000011e-02
1.057499999999999933e-02
1.065900000000000007e-02
1.075399999999999967e-02
1.072799999999999969e-02
1.061199999999999991e-02
1.057600000000000033e-02
1.066699999999999940e-02
1.076000000000000047e-02
1.072999999999999995e-02
1.061699999999999970e-02
1.058100000000000013e-02
1.067500000000000046e-02
1.076599999999999953e-02
1.073200000000000022e-02
1.061499999999999944e-02
1.058000000000000086e-02
1.067099999999999993e-02
1.076200000000000073e-02
1.073099999999999922e-02
1.061600000000000044e-02
1.058399999999999966e-02
1.067700000000000073e-02
1.076700000000000053e-02
1.073200000000000022e-02
1.061600000000000044e-02
1.058599999999999992e-02
1.068099999999999952e-02
1.076300000000000000e-02
1.072200000000000063e-02
1.061100000000000064e-02
1.058100000000000013e-02
1.067899999999999926e-02
1.077700000000000012e-02
1.075199999999999941e-02
1.065299999999999928e-02
1.063200000000000083e-02
1.072700000000000042e-02
1.080799999999999990e-02
1.076300000000000000e-02
1.065299999999999928e-02
1.064200000000000042e-02
1.075899999999999947e-02
1.085999999999999986e-02
1.081200000000000043e-02
1.068599999999999932e-02
1.064999999999999974e-02
1.074600000000000034e-02
1.082499999999999955e-02
1.077600000000000086e-02
1.065600000000000054e-02
1.061899999999999997e-02
1.070699999999999950e-02
1.078699999999999971e-02
1.073600000000000075e-02
1.061999999999999923e-02
1.059500000000000025e-02
1.068900000000000058e-02
1.076900000000000079e-02
1.072099999999999963e-02
1.060999999999999964e-02
1.058699999999999919e-02
1.068400000000000079e-02
1.076599999999999953e-02
1.071300000000000030e-02
1.056700000000000000e-02
1.048999999999999932e-02
1.057400000000000007e-02
1.067899999999999926e-02
1.064000000000000015e-02
1.062500000000000076e-02
1.083499999999999915e-02
1.121600000000000028e-02
1.158999999999999961e-02
1.186599999999999981e-02
1.180400000000000026e-02
1.163499999999999951e-02
1.155199999999999977e-02
1.139399999999999961e-02
1.114399999999999939e-02
1.089700000000000044e-02
1.080099999999999984e-02
1.085400000000000080e-02
1.090200000000000023e-02
1.083600000000000015e-02
1.071899999999999936e-02
1.068900000000000058e-02
1.078199999999999992e-02
1.085000000000000027e-02
1.078999999999999924e-02
1.067099999999999993e-02
1.064700000000000021e-02
1.074400000000000008e-02
1.081900000000000049e-02
1.076500000000000026e-02
1.065499999999999954e-02
1.064000000000000015e-02
1.074400000000000008e-02
1.081400000000000070e-02
1.075599999999999994e-02
1.064200000000000042e-02
1.063000000000000056e-02
1.073499999999999975e-02
1.080799999999999990e-02
1.074699999999999961e-02
1.063899999999999915e-02
1.062600000000000003e-02
1.073200000000000022e-02
1.080700000000000063e-02
1.075399999999999967e-02
1.064599999999999921e-02
1.063099999999999982e-02
1.073200000000000022e-02
1.080500000000000037e-02
1.074600000000000034e-02
1.064099999999999942e-02
1.063599999999999962e-02
1.074699999999999961e-02
1.081700000000000023e-02
1.075300000000000041e-02
1.064200000000000042e-02
1.063599999999999962e-02
1.073999999999999955e-02
1.081099999999999943e-02
1.075399999999999967e-02
1.064900000000000048e-02
1.064799999999999948e-02
1.076200000000000073e-02
1.083199999999999961e-02
1.077000000000000006e-02
1.066800000000000040e-02
1.067000000000000066e-02
1.078800000000000071e-02
1.086799999999999919e-02
1.081200000000000043e-02
1.070499999999999924e-02
1.071500000000000057e-02
1.083699999999999941e-02
1.091300000000000082e-02
1.086100000000000086e-02
1.076099999999999973e-02
1.077200000000000032e-02
1.089099999999999964e-02
1.096600000000000005e-02
1.090900000000000029e-02
1.081499999999999996e-02
1.082600000000000055e-02
1.094200000000000034e-02
1.101099999999999995e-02
1.094099999999999934e-02
1.083300000000000061e-02
1.082999999999999935e-02
1.092699999999999921e-02
1.097200000000000085e-02
1.088199999999999931e-02
1.075899999999999947e-02
1.073999999999999955e-02
1.082900000000000008e-02
1.087600000000000025e-02
1.079399999999999978e-02
1.067799999999999999e-02
1.067199999999999920e-02
1.077000000000000006e-02
1.082299999999999929e-02
1.074899999999999987e-02
1.064400000000000068e-02
1.064700000000000021e-02
1.075500000000000067e-02
1.081599999999999923e-02
1.074199999999999981e-02
1.063500000000000036e-02
1.064400000000000068e-02
1.075199999999999941e-02
1.081099999999999943e-02
1.073700000000000002e-02
1.063399999999999936e-02
1.064599999999999921e-02
1.075899999999999947e-02
1.081599999999999923e-02
1.073900000000000028e-02
1.063399999999999936e-02
1.064099999999999942e-02
1.075300000000000041e-02
1.080899999999999916e-02
1.073400000000000049e-02
1.063000000000000056e-02
1.063899999999999915e-02
1.075300000000000041e-02
1.080899999999999916e-02
1.072799999999999969e-02
1.062600000000000003e-02
1.064000000000000015e-02
1.075500000000000067e-02
1.080899999999999916e-02
1.072999999999999995e-02
1.062500000000000076e-02
1.064000000000000015e-02
1.074999999999999914e-02
1.080500000000000037e-02
1.072799999999999969e-02
1.063099999999999982e-02
1.064400000000000068e-02
1.075199999999999941e-02
1.080000000000000057e-02
1.072399999999999916e-02
1.062600000000000003e-02
1.063799999999999989e-02
1.074800000000000061e-02
1.079800000000000031e-02
1.071500000000000057e-02
1.061699999999999970e-02
1.063899999999999915e-02
1.075199999999999941e-02
1.080000000000000057e-02
1.071599999999999983e-02
1.062199999999999950e-02
1.064000000000000015e-02
1.075500000000000067e-02
1.080300000000000010e-02
1.071899999999999936e-02
1.061800000000000070e-02
1.063500000000000036e-02
1.075300000000000041e-02
1.080399999999999937e-02
1.071599999999999983e-02
1.061999999999999923e-02
1.064200000000000042e-02
1.075699999999999920e-02
1.080599999999999963e-02
1.072500000000000016e-02
1.063500000000000036e-02
1.065699999999999981e-02
1.076900000000000079e-02
1.081200000000000043e-02
1.072399999999999916e-02
1.063200000000000083e-02
1.065800000000000081e-02
1.077099999999999932e-02
1.081299999999999970e-02
1.072999999999999995e-02
1.063899999999999915e-02
1.066800000000000040e-02
1.078100000000000065e-02
1.082400000000000029e-02
1.073799999999999928e-02
1.064599999999999921e-02
1.067099999999999993e-02
1.078800000000000071e-02
1.083100000000000035e-02
1.073900000000000028e-02
1.064499999999999995e-02
1.068099999999999952e-02
1.079899999999999957e-02
1.083699999999999941e-02
1.075199999999999941e-02
1.066399999999999987e-02
1.069400000000000038e-02
1.080300000000000010e-02
1.083899999999999968e-02
1.075199999999999941e-02
1.065999999999999934e-02
1.069200000000000012e-02
1.080799999999999990e-02
1.084599999999999974e-02
1.075399999999999967e-02
1.066100000000000034e-02
1.069200000000000012e-02
1.080399999999999937e-02
1.084500000000000047e-02
1.075500000000000067e-02
1.066399999999999987e-02
1.069900000000000018e-02
1.082400000000000029e-02
1.086100000000000086e-02
1.076300000000000000e-02
1.066800000000000040e-02
1.070300000000000071e-02
1.081700000000000023e-02
1.085599999999999933e-02
1.076500000000000026e-02
1.067899999999999926e-02
1.072399999999999916e-02
1.083600000000000015e-02
1.085999999999999986e-02
1.076200000000000073e-02
1.068000000000000026e-02
1.071899999999999936e-02
1.083399999999999988e-02
1.085900000000000060e-02
1.076399999999999926e-02
1.068500000000000005e-02
1.072700000000000042e-02
1.085000000000000027e-02
1.087899999999999978e-02
1.078299999999999918e-02
1.069600000000000065e-02
1.073499999999999975e-02
1.084899999999999927e-02
1.087699999999999952e-02
1.077799999999999939e-02
1.068999999999999985e-02
1.072999999999999995e-02
1.085299999999999980e-02
1.088399999999999958e-02
1.078199999999999992e-02
1.069699999999999991e-02
1.073499999999999975e-02
1.084399999999999947e-02
1.086499999999999966e-02
1.076900000000000079e-02
1.069699999999999991e-02
1.075300000000000041e-02
1.088300000000000031e-02
1.091899999999999989e-02
1.082999999999999935e-02
1.074600000000000034e-02
1.078299999999999918e-02
1.088800000000000011e-02
1.091100000000000056e-02
1.082200000000000002e-02
1.076500000000000026e-02
1.084000000000000068e-02
1.097300000000000011e-02
1.099400000000000030e-02
1.088399999999999958e-02
1.080000000000000057e-02
1.083699999999999941e-02
1.093599999999999954e-02
1.093900000000000081e-02
1.082299999999999929e-02
1.073400000000000049e-02
1.077099999999999932e-02
1.087800000000000052e-02
1.089299999999999990e-02
1.078899999999999998e-02
1.071700000000000083e-02
1.078100000000000065e-02
1.089700000000000044e-02
1.091100000000000056e-02
1.080300000000000010e-02
1.072700000000000042e-02
1.077999999999999965e-02
1.089099999999999964e-02
1.089000000000000037e-02
1.073600000000000075e-02
1.060000000000000005e-02
1.065100000000000074e-02
1.077700000000000012e-02
1.081499999999999996e-02
1.084199999999999921e-02
1.102200000000000055e-02
1.137900000000000023e-02
1.179200000000000040e-02
1.204299999999999989e-02
1.182000000000000065e-02
1.155499999999999930e-02
1.141299999999999953e-02
1.131799999999999994e-02
1.118800000000000003e-02
1.099400000000000030e-02
1.086600000000000066e-02
1.090299999999999950e-02
1.100199999999999963e-02
1.100600000000000016e-02
1.090099999999999923e-02
1.082200000000000002e-02
1.086999999999999945e-02
1.098200000000000044e-02
1.099200000000000003e-02
1.088500000000000058e-02
1.080599999999999963e-02
1.085599999999999933e-02
1.096399999999999979e-02
1.097000000000000058e-02
1.086100000000000086e-02
1.078999999999999924e-02
1.084599999999999974e-02
1.094999999999999966e-02
1.095499999999999946e-02
1.085200000000000053e-02
1.078699999999999971e-02
1.084800000000000000e-02
1.095699999999999973e-02
1.095800000000000073e-02
1.084300000000000021e-02
1.077900000000000039e-02
1.085299999999999980e-02
1.097399999999999938e-02
1.097799999999999991e-02
1.087100000000000045e-02
1.080899999999999916e-02
1.088399999999999958e-02
1.100699999999999942e-02
1.101700000000000075e-02
1.093500000000000028e-02
1.092800000000000021e-02
1.102400000000000081e-02
1.113800000000000033e-02
1.114099999999999986e-02
1.103299999999999940e-02
1.095699999999999973e-02
1.101099999999999995e-02
1.111200000000000035e-02
1.110200000000000076e-02
1.098900000000000050e-02
1.092300000000000042e-02
1.098599999999999924e-02
1.110399999999999929e-02
1.112199999999999994e-02
1.101500000000000049e-02
1.095999999999999926e-02
1.102700000000000034e-02
1.112900000000000000e-02
1.113899999999999960e-02
1.103699999999999994e-02
1.098400000000000071e-02
1.105300000000000032e-02
1.115900000000000052e-02
1.115900000000000052e-02
1.105599999999999986e-02
1.100600000000000016e-02
1.108499999999999937e-02
1.118899999999999929e-02
1.118300000000000023e-02
1.108100000000000057e-02
1.102900000000000061e-02
1.109500000000000069e-02
1.119200000000000056e-02
1.117300000000000064e-02
1.105199999999999932e-02
1.098200000000000044e-02
1.103699999999999994e-02
1.112800000000000074e-02
1.110000000000000049e-02
1.096199999999999952e-02
1.088700000000000084e-02
1.094700000000000013e-02
1.104699999999999953e-02
1.102900000000000061e-02
1.090400000000000050e-02
1.083399999999999988e-02
1.089999999999999997e-02
1.099800000000000083e-02
1.099100000000000077e-02
1.088000000000000078e-02
1.082699999999999982e-02
1.090999999999999956e-02
1.102599999999999934e-02
1.101500000000000049e-02
1.089999999999999997e-02
1.084500000000000047e-02
1.092100000000000015e-02
1.102000000000000028e-02
1.099999999999999936e-02
1.088399999999999958e-02
1.082699999999999982e-02
1.090400000000000050e-02
1.100399999999999989e-02
1.098200000000000044e-02
1.086499999999999966e-02
1.081299999999999970e-02
1.089299999999999990e-02
1.099100000000000077e-02
1.097599999999999965e-02
1.086600000000000066e-02
1.081200000000000043e-02
1.088500000000000058e-02
1.098299999999999971e-02
1.097300000000000011e-02
1.086999999999999945e-02
1.082400000000000029e-02
1.089999999999999997e-02
1.099699999999999983e-02
1.098099999999999944e-02
1.086900000000000019e-02
1.081900000000000049e-02
1.089900000000000070e-02
1.099699999999999983e-02
1.098099999999999944e-02
1.086499999999999966e-02
1.081700000000000023e-02
1.089599999999999944e-02
1.099699999999999983e-02
1.097700000000000065e-02
1.087100000000000045e-02
1.083100000000000035e-02
1.090700000000000003e-02
1.099800000000000083e-02
1.097500000000000038e-02
1.086600000000000066e-02
1.081999999999999976e-02
1.090400000000000050e-02
1.100499999999999916e-02
1.098299999999999971e-02
1.086999999999999945e-02
1.082600000000000055e-02
1.090900000000000029e-02
1.100300000000000063e-02
1.097799999999999991e-02
1.086600000000000066e-02
1.081999999999999976e-02
1.090600000000000076e-02
1.100399999999999989e-02
1.097899999999999918e-02
1.086699999999999992e-02
1.082299999999999929e-02
1.090400000000000050e-02
1.099600000000000057e-02
1.097599999999999965e-02
1.086900000000000019e-02
1.082999999999999935e-02
1.091199999999999982e-02
1.099999999999999936e-02
1.096800000000000032e-02
1.085799999999999960e-02
1.082499999999999955e-02
1.091600000000000036e-02
1.100699999999999942e-02
1.097700000000000065e-02
1.086900000000000019e-02
1.082600000000000055e-02
1.091100000000000056e-02
1.100699999999999942e-02
1.097599999999999965e-02
1.085999999999999986e-02
1.082299999999999929e-02
1.091600000000000036e-02
1.100800000000000042e-02
1.097799999999999991e-02
1.086200000000000013e-02
1.082900000000000008e-02
1.092100000000000015e-02
1.100899999999999969e-02
1.097899999999999918e-02
1.086200000000000013e-02
1.082999999999999935e-02
1.091899999999999989e-02
1.100899999999999969e-02
1.097300000000000011e-02
1.085799999999999960e-02
1.083100000000000035e-02
1.092399999999999968e-02
1.101399999999999949e-02
1.099699999999999983e-02
1.089900000000000070e-02
1.088000000000000078e-02
1.097599999999999965e-02
1.105399999999999959e-02
1.101700000000000075e-02
1.091400000000000009e-02
1.089700000000000044e-02
1.100699999999999942e-02
1.111299999999999961e-02
1.107700000000000004e-02
1.095299999999999919e-02
1.091100000000000056e-02
1.099699999999999983e-02
1.107200000000000024e-02
1.102700000000000034e-02
1.090700000000000003e-02
1.086799999999999919e-02
1.095299999999999919e-02
1.102799999999999961e-02
1.098000000000000018e-02
1.086400000000000039e-02
1.083199999999999961e-02
1.092500000000000068e-02
1.100800000000000042e-02
1.096800000000000032e-02
1.085999999999999986e-02
1.083800000000000041e-02
1.093300000000000001e-02
1.101199999999999922e-02
1.096399999999999979e-02
1.083499999999999915e-02
1.076399999999999926e-02
1.082100000000000076e-02
1.090999999999999956e-02
1.088800000000000011e-02
1.080099999999999984e-02
1.090099999999999923e-02
1.123900000000000073e-02
1.160399999999999973e-02
1.183900000000000056e-02
1.200500000000000005e-02
1.190699999999999918e-02
1.179099999999999940e-02
1.165899999999999923e-02
1.139399999999999961e-02
1.112699999999999974e-02
1.102000000000000028e-02
1.107299999999999951e-02
1.112100000000000068e-02
1.105899999999999939e-02
1.094400000000000060e-02
1.092500000000000068e-02
1.102200000000000055e-02
1.109699999999999923e-02
1.103799999999999920e-02
1.091699999999999962e-02
1.089799999999999970e-02
1.099699999999999983e-02
1.107200000000000024e-02
1.101800000000000002e-02
1.090700000000000003e-02
1.089000000000000037e-02
1.099200000000000003e-02
1.106900000000000071e-02
1.102200000000000055e-02
1.091300000000000082e-02
1.089500000000000017e-02
1.099200000000000003e-02
1.106900000000000071e-02
1.101800000000000002e-02
1.090299999999999950e-02
1.089200000000000064e-02
1.099299999999999930e-02
1.106299999999999992e-02
1.100899999999999969e-02
1.089700000000000044e-02
1.088800000000000011e-02
1.099400000000000030e-02
1.106299999999999992e-02
1.100499999999999916e-02
1.089099999999999964e-02
1.088100000000000005e-02
1.098900000000000050e-02
1.106900000000000071e-02
1.101399999999999949e-02
1.090700000000000003e-02
1.089799999999999970e-02
1.100100000000000036e-02
1.107499999999999978e-02
1.101599999999999975e-02
1.091300000000000082e-02
1.090099999999999923e-02
1.100399999999999989e-02
1.107700000000000004e-02
1.102400000000000081e-02
1.092199999999999942e-02
1.092300000000000042e-02
1.103999999999999947e-02
1.111799999999999941e-02
1.106399999999999918e-02
1.096199999999999952e-02
1.096899999999999958e-02
1.108600000000000037e-02
1.116400000000000031e-02
1.111499999999999988e-02
1.101800000000000002e-02
1.102000000000000028e-02
1.113800000000000033e-02
1.122199999999999934e-02
1.116800000000000084e-02
1.106599999999999945e-02
1.106399999999999918e-02
1.117100000000000037e-02
1.124700000000000005e-02
1.118500000000000050e-02
1.107299999999999951e-02
1.106299999999999992e-02
1.115900000000000052e-02
1.120900000000000021e-02
1.112299999999999921e-02
1.099699999999999983e-02
1.097700000000000065e-02
1.106799999999999971e-02
1.111900000000000041e-02
1.103799999999999920e-02
1.092399999999999968e-02
1.091600000000000036e-02
1.101500000000000049e-02
1.106999999999999998e-02
1.099800000000000083e-02
1.089099999999999964e-02
1.089299999999999990e-02
1.100199999999999963e-02
1.106000000000000039e-02
1.098700000000000024e-02
1.088000000000000078e-02
1.088700000000000084e-02
1.099999999999999936e-02
1.105800000000000012e-02
1.098499999999999997e-02
1.087499999999999925e-02
1.087600000000000025e-02
1.098599999999999924e-02
1.105399999999999959e-02
1.098700000000000024e-02
1.087899999999999978e-02
1.088199999999999931e-02
1.099800000000000083e-02
1.106000000000000039e-02
1.098700000000000024e-02
1.087800000000000052e-02
1.087699999999999952e-02
1.098799999999999950e-02
1.104600000000000026e-02
1.097300000000000011e-02
1.087399999999999999e-02
1.088000000000000078e-02
1.098799999999999950e-02
1.104300000000000073e-02
1.096800000000000032e-02
1.086200000000000013e-02
1.087499999999999925e-02
1.099400000000000030e-02
1.105599999999999986e-02
1.098200000000000044e-02
1.087800000000000052e-02
1.088399999999999958e-02
1.099299999999999930e-02
1.104600000000000026e-02
1.097599999999999965e-02
1.088100000000000005e-02
1.089599999999999944e-02
1.100300000000000063e-02
1.104899999999999979e-02
1.097099999999999985e-02
1.087100000000000045e-02
1.088399999999999958e-02
1.099999999999999936e-02
1.106000000000000039e-02
1.098200000000000044e-02
1.088100000000000005e-02
1.089399999999999917e-02
1.100499999999999916e-02
1.105899999999999939e-02
1.098000000000000018e-02
1.088199999999999931e-02
1.090200000000000023e-02
1.101399999999999949e-02
1.106200000000000065e-02
1.098499999999999997e-02
1.089200000000000064e-02
1.090799999999999929e-02
1.102000000000000028e-02
1.106399999999999918e-02
1.098299999999999971e-02
1.088500000000000058e-02
1.090600000000000076e-02
1.102299999999999981e-02
1.107799999999999931e-02
1.099499999999999957e-02
1.089299999999999990e-02
1.090799999999999929e-02
1.102200000000000055e-02
1.106799999999999971e-02
1.098499999999999997e-02
1.088899999999999937e-02
1.090999999999999956e-02
1.102400000000000081e-02
1.107299999999999951e-02
1.099400000000000030e-02
1.089999999999999997e-02
1.092199999999999942e-02
1.103999999999999947e-02
1.108499999999999937e-02
1.099600000000000057e-02
1.089599999999999944e-02
1.091499999999999936e-02
1.102799999999999961e-02
1.107200000000000024e-02
1.099200000000000003e-02
1.090299999999999950e-02
1.092699999999999921e-02
1.104199999999999973e-02
1.108199999999999984e-02
1.099100000000000077e-02
1.089500000000000017e-02
1.092399999999999968e-02
1.104400000000000000e-02
1.109399999999999969e-02
1.102400000000000081e-02
1.094599999999999913e-02
1.098200000000000044e-02
1.110300000000000002e-02
1.114099999999999986e-02
1.105000000000000079e-02
1.095600000000000046e-02
1.099200000000000003e-02
1.112100000000000068e-02
1.117499999999999917e-02
1.108999999999999916e-02
1.098999999999999977e-02
1.101099999999999995e-02
1.111599999999999915e-02
1.114300000000000013e-02
1.104699999999999953e-02
1.095899999999999999e-02
1.098599999999999924e-02
1.108699999999999963e-02
1.111400000000000061e-02
1.101399999999999949e-02
1.091600000000000036e-02
1.094200000000000034e-02
1.105599999999999986e-02
1.109399999999999969e-02
1.100399999999999989e-02
1.091499999999999936e-02
1.094499999999999987e-02
1.105700000000000086e-02
1.108999999999999916e-02
1.099699999999999983e-02
1.089099999999999964e-02
1.088199999999999931e-02
1.094799999999999940e-02
1.097599999999999965e-02
1.090799999999999929e-02
1.085599999999999933e-02
1.102099999999999955e-02
1.137200000000000016e-02
1.167299999999999935e-02
1.185600000000000022e-02
1.206499999999999934e-02
1.209099999999999932e-02
1.202300000000000070e-02
1.183900000000000056e-02
1.150699999999999987e-02
1.124400000000000052e-02
1.117199999999999964e-02
1.122199999999999934e-02
1.120799999999999921e-02
1.109399999999999969e-02
1.100800000000000042e-02
1.103699999999999994e-02
1.113300000000000053e-02
1.115200000000000045e-02
1.105100000000000006e-02
1.095800000000000073e-02
1.099299999999999930e-02
1.110399999999999929e-02
1.112699999999999974e-02
1.102700000000000034e-02
1.094299999999999960e-02
1.098599999999999924e-02
1.109800000000000023e-02
1.112699999999999974e-02
1.102900000000000061e-02
1.094499999999999987e-02
1.099100000000000077e-02
1.110700000000000055e-02
1.113100000000000027e-02
1.103299999999999940e-02
1.095299999999999919e-02
1.099999999999999936e-02
1.111700000000000015e-02
1.114300000000000013e-02
1.105100000000000006e-02
1.097000000000000058e-02
1.101599999999999975e-02
1.112999999999999927e-02
1.114500000000000039e-02
1.104100000000000047e-02
1.096300000000000052e-02
1.101300000000000022e-02
1.113100000000000027e-02
1.114899999999999919e-02
1.104699999999999953e-02
1.096500000000000079e-02
1.101500000000000049e-02
1.112400000000000021e-02
1.113899999999999960e-02
1.103900000000000020e-02
1.096300000000000052e-02
1.101199999999999922e-02
1.113100000000000027e-02
1.115000000000000019e-02
1.104800000000000053e-02
1.097300000000000011e-02
1.102700000000000034e-02
1.114099999999999986e-02
1.116400000000000031e-02
1.107099999999999924e-02
1.100600000000000016e-02
1.106200000000000065e-02
1.118199999999999923e-02
1.120600000000000068e-02
1.111299999999999961e-02
1.105000000000000079e-02
1.111999999999999968e-02
1.124400000000000052e-02
1.126699999999999924e-02
1.117199999999999964e-02
1.110799999999999982e-02
1.117100000000000037e-02
1.128700000000000016e-02
1.130100000000000028e-02
1.119500000000000009e-02
1.112299999999999921e-02
1.117600000000000017e-02
1.127300000000000003e-02
1.126899999999999950e-02
1.114399999999999939e-02
1.105199999999999932e-02
1.109599999999999996e-02
1.118700000000000076e-02
1.117699999999999944e-02
1.105100000000000006e-02
1.097200000000000085e-02
1.102200000000000055e-02
1.112199999999999994e-02
1.111900000000000041e-02
1.100399999999999989e-02
1.093099999999999974e-02
1.098999999999999977e-02
1.109500000000000069e-02
1.110200000000000076e-02
1.098799999999999950e-02
1.091400000000000009e-02
1.097200000000000085e-02
1.108300000000000084e-02
1.109100000000000016e-02
1.097700000000000065e-02
1.090999999999999956e-02
1.097599999999999965e-02
1.108100000000000057e-02
1.108100000000000057e-02
1.096699999999999932e-02
1.090600000000000076e-02
1.097000000000000058e-02
1.107799999999999931e-02
1.107900000000000031e-02
1.097099999999999985e-02
1.090799999999999929e-02
1.097500000000000038e-02
1.108100000000000057e-02
1.107999999999999957e-02
1.097399999999999938e-02
1.091199999999999982e-02
1.097799999999999991e-02
1.108600000000000037e-02
1.108699999999999963e-02
1.097700000000000065e-02
1.091199999999999982e-02
1.097899999999999918e-02
1.108699999999999963e-02
1.108699999999999963e-02
1.098400000000000071e-02
1.092199999999999942e-02
1.098900000000000050e-02
1.109800000000000023e-02
1.109899999999999949e-02
1.098900000000000050e-02
1.092800000000000021e-02
1.099800000000000083e-02
1.110300000000000002e-02
1.109899999999999949e-02
1.098700000000000024e-02
1.092199999999999942e-02
1.099100000000000077e-02
1.109899999999999949e-02
1.109199999999999943e-02
1.098400000000000071e-02
1.092599999999999995e-02
1.099699999999999983e-02
1.110300000000000002e-02
1.109100000000000016e-02
1.097700000000000065e-02
1.091800000000000062e-02
1.099299999999999930e-02
1.110099999999999976e-02
1.109100000000000016e-02
1.098099999999999944e-02
1.092399999999999968e-02
1.099699999999999983e-02
1.110099999999999976e-02
1.109599999999999996e-02
1.098299999999999971e-02
1.092599999999999995e-02
1.100499999999999916e-02
1.111099999999999935e-02
1.110599999999999955e-02
1.099600000000000057e-02
1.094299999999999960e-02
1.101899999999999928e-02
1.112100000000000068e-02
1.110700000000000055e-02
1.099800000000000083e-02
1.094200000000000034e-02
1.101500000000000049e-02
1.111799999999999941e-02
1.110700000000000055e-02
1.099800000000000083e-02
1.094799999999999940e-02
1.102700000000000034e-02
1.112600000000000047e-02
1.111200000000000035e-02
1.099499999999999957e-02
1.094299999999999960e-02
1.102700000000000034e-02
1.112600000000000047e-02
1.110700000000000055e-02
1.099800000000000083e-02
1.095100000000000066e-02
1.103699999999999994e-02
1.113600000000000007e-02
1.111599999999999915e-02
1.100899999999999969e-02
1.096199999999999952e-02
1.104400000000000000e-02
1.113800000000000033e-02
1.111999999999999968e-02
1.100399999999999989e-02
1.095899999999999999e-02
1.104199999999999973e-02
1.114599999999999966e-02
1.112900000000000000e-02
1.101199999999999922e-02
1.096600000000000005e-02
1.105100000000000006e-02
1.115200000000000045e-02
1.113199999999999953e-02
1.101700000000000075e-02
1.096899999999999958e-02
1.105599999999999986e-02
1.115599999999999925e-02
1.114300000000000013e-02
1.104699999999999953e-02
1.101800000000000002e-02
1.111499999999999988e-02
1.121600000000000028e-02
1.118599999999999976e-02
1.106999999999999998e-02
1.103099999999999914e-02
1.112699999999999974e-02
1.124299999999999952e-02
1.123399999999999919e-02
1.111599999999999915e-02
1.106799999999999971e-02
1.115000000000000019e-02
1.123700000000000046e-02
1.120499999999999968e-02
1.108800000000000063e-02
1.103999999999999947e-02
1.111400000000000061e-02
1.118899999999999929e-02
1.115400000000000072e-02
1.104300000000000073e-02
1.100499999999999916e-02
1.108699999999999963e-02
1.118000000000000070e-02
1.115499999999999999e-02
1.104400000000000000e-02
1.100199999999999963e-02
1.109100000000000016e-02
1.118599999999999976e-02
1.116100000000000078e-02
1.104699999999999953e-02
1.098999999999999977e-02
1.103900000000000020e-02
1.108199999999999984e-02
1.106099999999999965e-02
1.097399999999999938e-02
1.097899999999999918e-02
1.122599999999999987e-02
1.157099999999999969e-02
1.180499999999999952e-02
1.199700000000000072e-02
1.220899999999999937e-02
1.222600000000000076e-02
1.213799999999999948e-02
1.188999999999999953e-02
1.155300000000000077e-02
1.135300000000000024e-02
1.133999999999999939e-02
1.136900000000000063e-02
1.129900000000000002e-02
1.116999999999999937e-02
1.112900000000000000e-02
1.120999999999999948e-02
1.128499999999999989e-02
1.123799999999999973e-02
1.111499999999999988e-02
1.108400000000000010e-02
1.117300000000000064e-02
1.125499999999999938e-02
1.121499999999999928e-02
1.109899999999999949e-02
1.106999999999999998e-02
1.116499999999999958e-02
1.124900000000000032e-02
1.120900000000000021e-02
1.109699999999999923e-02
1.107099999999999924e-02
1.116200000000000005e-02
1.124700000000000005e-02
1.120999999999999948e-02
1.109500000000000069e-02
1.106599999999999945e-02
1.116600000000000058e-02
1.125100000000000058e-02
1.120799999999999921e-02
1.110099999999999976e-02
1.108899999999999990e-02
1.119000000000000029e-02
1.127599999999999957e-02
1.123700000000000046e-02
1.112199999999999994e-02
1.109699999999999923e-02
1.119400000000000082e-02
1.127500000000000030e-02
1.122699999999999913e-02
1.111299999999999961e-02
1.108800000000000063e-02
1.118399999999999950e-02
1.126399999999999971e-02
1.121800000000000054e-02
1.110399999999999929e-02
1.107799999999999931e-02
1.117399999999999990e-02
1.125300000000000085e-02
1.120200000000000015e-02
1.109899999999999949e-02
1.108699999999999963e-02
1.118800000000000003e-02
1.127599999999999957e-02
1.123700000000000046e-02
1.112999999999999927e-02
1.112299999999999921e-02
1.123200000000000066e-02
1.131799999999999994e-02
1.128000000000000010e-02
1.117899999999999970e-02
1.116900000000000011e-02
1.127599999999999957e-02
1.136299999999999984e-02
1.132700000000000026e-02
1.123900000000000073e-02
1.124700000000000005e-02
1.136299999999999984e-02
1.144000000000000052e-02
1.138600000000000029e-02
1.127000000000000050e-02
1.124700000000000005e-02
1.134399999999999992e-02
1.140299999999999994e-02
1.132999999999999979e-02
1.120099999999999915e-02
1.116999999999999937e-02
1.125600000000000038e-02
1.130899999999999961e-02
1.123700000000000046e-02
1.111200000000000035e-02
1.108699999999999963e-02
1.118300000000000023e-02
1.124499999999999979e-02
1.117800000000000044e-02
1.106599999999999945e-02
1.104899999999999979e-02
1.114799999999999992e-02
1.121899999999999981e-02
1.115200000000000045e-02
1.103900000000000020e-02
1.102900000000000061e-02
1.113600000000000007e-02
1.120699999999999995e-02
1.114399999999999939e-02
1.104100000000000047e-02
1.103400000000000040e-02
1.113699999999999933e-02
1.120900000000000021e-02
1.114500000000000039e-02
1.103299999999999940e-02
1.102700000000000034e-02
1.114099999999999986e-02
1.121300000000000074e-02
1.115000000000000019e-02
1.103799999999999920e-02
1.103600000000000067e-02
1.114300000000000013e-02
1.120999999999999948e-02
