0.000000 -0.887023 1.278535 1.333333
0.001000 -1.270494 1.333333 1.333333
0.002000 -1.333333 1.333333 1.333333
0.003000 -1.333333 1.333333 1.333333
0.004000 -1.333333 1.333333 1.333333
0.005000 -1.065992 1.114808 1.333333
0.006000 -0.662236 0.795287 1.333333
0.007000 -0.158017 0.398829 0.505674
0.008000 0.422580 -0.060721 -0.544804
0.009000 0.962021 -0.424928 -1.333333
0.010000 1.333333 -0.720030 -1.333333
0.011000 1.333333 -0.975984 -1.333333
0.012000 1.333333 -1.027784 -1.333333
0.013000 1.333333 -0.992113 -1.333333
0.014000 1.333333 -0.871100 -1.333333
0.015000 1.333333 -0.528257 -1.333333
0.016000 1.244312 -0.176036 -1.333333
0.017000 0.750535 0.195101 -0.487112
0.018000 0.178438 0.662200 0.526852
0.019000 -0.385901 1.027367 1.333333
0.020000 -0.849350 1.333333 1.333333
0.021000 -1.252647 1.333333 1.333333
0.022000 -1.333333 1.333333 1.333333
0.023000 -1.333333 1.333333 1.333333
0.024000 -1.333333 1.333333 1.333333
0.025000 -1.057577 1.100218 1.333333
0.026000 -0.660695 0.787859 1.333333
0.027000 -0.166424 0.402748 0.510008
0.028000 0.393867 -0.036945 -0.519529
0.029000 0.985733 -0.423970 -1.333333
0.030000 1.333333 -0.687082 -1.333333
0.031000 1.333333 -0.991005 -1.333333
0.032000 1.333333 -1.041656 -1.333333
0.033000 1.333333 -1.025621 -1.333333
0.034000 1.333333 -0.893074 -1.333333
0.035000 1.333333 -0.549896 -1.333333
0.036000 1.250825 -0.176599 -1.333333
0.037000 0.758692 0.206919 -0.474213
0.038000 0.133937 0.627174 0.547101
0.039000 -0.420098 1.013983 1.333333
0.040000 -0.905489 1.305089 1.333333
0.041000 -1.300034 1.333333 1.333333
0.042000 -1.333333 1.333333 1.333333
0.043000 -1.333333 1.333333 1.333333
0.044000 -1.333333 1.333333 1.333333
0.045000 -1.044131 1.116597 1.333333
0.046000 -0.618340 0.829659 1.333333
0.047000 -0.128473 0.405000 0.489307
0.048000 0.440078 -0.041440 -0.570237
0.049000 0.992043 -0.444171 -1.333333
0.050000 1.333333 -0.701911 -1.333333
0.051000 1.333333 -0.972823 -1.333333
0.052000 1.333333 -1.000781 -1.333333
0.053000 1.333333 -0.971109 -1.333333
0.054000 1.333333 -0.833813 -1.333333
0.055000 1.333333 -0.487433 -1.333333
0.056000 1.256379 -0.165085 -1.333333
0.057000 0.728942 0.198482 -0.463740
0.058000 0.146085 0.653522 0.566796
0.059000 -0.411582 1.032787 1.333333
0.060000 -0.887399 1.333333 1.333333
0.061000 -1.307951 1.333333 1.333333
0.062000 -1.333333 1.333333 1.333333
0.063000 -1.333333 1.333333 1.333333
0.064000 -1.333333 1.333333 1.333333
0.065000 -1.071171 1.073885 1.333333
0.066000 -0.607269 0.791189 1.331337
0.067000 -0.120511 0.388628 0.437158
0.068000 0.450356 -0.056637 -0.575785
0.069000 1.013398 -0.422023 -1.333333
0.070000 1.333333 -0.720868 -1.333333
0.071000 1.333333 -0.980856 -1.333333
0.072000 1.333333 -1.033913 -1.333333
0.073000 1.333333 -0.973935 -1.333333
0.074000 1.333333 -0.866204 -1.333333
0.075000 1.333333 -0.540709 -1.333333
0.076000 1.207994 -0.219878 -1.333333
0.077000 0.711985 0.176821 -0.482132
0.078000 0.077288 0.581829 0.582765
0.079000 -0.467443 0.982168 1.333333
0.080000 -0.923661 1.276304 1.333333
0.081000 -1.310375 1.333333 1.333333
0.082000 -1.333333 1.333333 1.333333
0.083000 -1.333333 1.333333 1.333333
0.084000 -1.333333 1.333333 1.333333
0.085000 -1.058346 1.106287 1.333333
0.086000 -0.625828 0.749525 1.333333
0.087000 -0.137516 0.369961 0.407825
0.088000 0.477560 -0.051934 -0.603701
0.089000 1.028302 -0.409848 -1.333333
0.090000 1.333333 -0.714621 -1.333333
0.091000 1.333333 -0.963019 -1.333333
0.092000 1.333333 -1.063177 -1.333333
0.093000 1.333333 -0.980256 -1.333333
0.094000 1.333333 -0.859759 -1.333333
0.095000 1.333333 -0.476688 -1.333333
0.096000 1.262675 -0.168347 -1.333333
0.097000 0.731883 0.242171 -0.437748
0.098000 0.136018 0.656446 0.606372
0.099000 -0.441031 1.028090 1.333333
0.100000 -0.900500 1.305604 1.333333
0.101000 -1.290158 1.333333 1.333333
0.102000 -1.333333 1.333333 1.333333
0.103000 -1.333333 1.333333 1.333333
0.104000 -1.333333 1.333333 1.333333
0.105000 -1.038440 1.115734 1.333333
0.106000 -0.601123 0.797907 1.333333
0.107000 -0.105803 0.411013 0.430683
0.108000 0.464766 -0.068591 -0.595260
0.109000 1.009063 -0.446625 -1.333333
0.110000 1.333333 -0.773163 -1.333333
0.111000 1.333333 -0.954384 -1.333333
0.112000 1.333333 -1.016780 -1.333333
0.113000 1.333333 -0.951117 -1.333333
0.114000 1.333333 -0.832097 -1.333333
0.115000 1.333333 -0.485388 -1.333333
0.116000 1.244711 -0.169205 -1.333333
0.117000 0.736696 0.235706 -0.448273
0.118000 0.114488 0.650136 0.597216
0.119000 -0.439222 1.048594 1.333333
0.120000 -0.887645 1.333333 1.333333
0.121000 -1.293079 1.333333 1.333333
0.122000 -1.333333 1.333333 1.333333
0.123000 -1.333333 1.333333 1.333333
0.124000 -1.333333 1.333333 1.333333
0.125000 -1.021293 1.143186 1.333333
0.126000 -0.614290 0.807985 1.333333
0.127000 -0.089117 0.417289 0.436709
0.128000 0.497297 -0.036754 -0.603535
0.129000 1.071300 -0.413918 -1.333333
0.130000 1.333333 -0.721104 -1.333333
0.131000 1.333333 -0.963744 -1.333333
0.132000 1.333333 -1.021466 -1.333333
0.133000 1.333333 -0.940261 -1.333333
0.134000 1.333333 -0.806440 -1.333333
0.135000 1.333333 -0.490346 -1.333333
0.136000 1.195962 -0.155877 -1.302767
0.137000 0.697283 0.244348 -0.375357
0.138000 0.102610 0.699470 0.646197
0.139000 -0.442053 1.070225 1.333333
0.140000 -0.897204 1.333333 1.333333
0.141000 -1.304239 1.333333 1.333333
0.142000 -1.333333 1.333333 1.333333
0.143000 -1.333333 1.333333 1.333333
0.144000 -1.333333 1.333333 1.333333
0.145000 -1.047613 1.085564 1.333333
0.146000 -0.628449 0.778015 1.331559
0.147000 -0.139610 0.375167 0.443817
0.148000 0.474305 -0.051363 -0.607561
0.149000 1.023924 -0.466543 -1.333333
0.150000 1.333333 -0.753352 -1.333333
0.151000 1.333333 -0.994524 -1.333333
0.152000 1.333333 -1.053973 -1.333333
0.153000 1.333333 -0.995308 -1.333333
0.154000 1.333333 -0.839972 -1.333333
0.155000 1.333333 -0.501585 -1.333333
0.156000 1.233994 -0.146382 -1.333333
0.157000 0.706114 0.227376 -0.393731
0.158000 0.135428 0.711880 0.631679
0.159000 -0.442231 1.065269 1.333333
0.160000 -0.917472 1.333333 1.333333
0.161000 -1.311696 1.333333 1.333333
0.162000 -1.333333 1.333333 1.333333
0.163000 -1.333333 1.333333 1.333333
0.164000 -1.333333 1.333333 1.333333
0.165000 -1.024706 1.117651 1.333333
0.166000 -0.597568 0.790304 1.317551
0.167000 -0.068740 0.378623 0.399728
0.168000 0.545824 -0.042828 -0.671220
0.169000 1.087430 -0.429489 -1.333333
0.170000 1.333333 -0.696794 -1.333333
0.171000 1.333333 -0.961237 -1.333333
0.172000 1.333333 -1.010135 -1.333333
0.173000 1.333333 -0.968398 -1.333333
0.174000 1.333333 -0.835619 -1.333333
0.175000 1.333333 -0.474773 -1.333333
0.176000 1.243756 -0.128657 -1.328834
0.177000 0.745574 0.244085 -0.435487
0.178000 0.149794 0.695369 0.607110
0.179000 -0.410073 1.055884 1.333333
0.180000 -0.883874 1.333333 1.333333
0.181000 -1.281736 1.333333 1.333333
0.182000 -1.333333 1.333333 1.333333
0.183000 -1.333333 1.333333 1.333333
0.184000 -1.333333 1.333333 1.333333
0.185000 -0.969250 1.097344 1.333333
0.186000 -0.593080 0.730666 1.252787
0.187000 -0.061706 0.368112 0.356589
0.188000 0.535152 -0.042883 -0.662313
0.189000 1.090597 -0.422486 -1.333333
0.190000 1.333333 -0.715108 -1.333333
0.191000 1.333333 -0.956280 -1.333333
0.192000 1.333333 -0.995173 -1.333333
0.193000 1.333333 -0.957065 -1.333333
0.194000 1.333333 -0.817774 -1.333333
0.195000 1.333333 -0.475763 -1.333333
0.196000 1.230596 -0.139546 -1.304902
0.197000 0.681654 0.252565 -0.384039
0.198000 0.108525 0.679227 0.643402
0.199000 -0.410577 1.088929 1.333333
0.200000 -0.866050 1.333333 1.333333
0.201000 -1.307281 1.333333 1.333333
0.202000 -1.333333 1.333333 1.333333
0.203000 -1.333333 1.333333 1.333333
0.204000 -1.333333 1.333333 1.333333
0.205000 -1.028132 1.059524 1.333333
0.206000 -0.590899 0.724121 1.265087
0.207000 -0.098176 0.344908 0.342046
0.208000 0.487668 -0.121917 -0.665897
0.209000 1.041707 -0.489912 -1.333333
0.210000 1.333333 -0.754715 -1.333333
0.211000 1.333333 -0.981447 -1.333333
0.212000 1.333333 -1.051439 -1.333333
0.213000 1.333333 -1.025974 -1.333333
0.214000 1.333333 -0.885917 -1.333333
0.215000 1.333333 -0.491247 -1.333333
0.216000 1.180863 -0.171707 -1.283806
0.217000 0.670430 0.248254 -0.362706
0.218000 0.049268 0.649338 0.699184
0.219000 -0.510782 1.045962 1.333333
0.220000 -0.946318 1.286432 1.333333
0.221000 -1.333333 1.333333 1.333333
0.222000 -1.333333 1.333333 1.333333
0.223000 -1.333333 1.333333 1.333333
0.224000 -1.333333 1.333333 1.333333
0.225000 -1.013110 1.078144 1.333333
0.226000 -0.600753 0.708312 1.242647
0.227000 -0.092763 0.331468 0.329373
0.228000 0.555892 -0.113167 -0.713787
0.229000 1.109147 -0.451454 -1.333333
0.230000 1.333333 -0.769158 -1.333333
0.231000 1.333333 -1.004584 -1.333333
0.232000 1.333333 -1.079164 -1.333333
0.233000 1.333333 -0.993060 -1.333333
0.234000 1.333333 -0.865698 -1.333333
0.235000 1.333333 -0.504128 -1.333333
0.236000 1.200467 -0.154379 -1.297469
0.237000 0.709464 0.230216 -0.401318
0.238000 0.096842 0.664244 0.640787
0.239000 -0.465431 1.055769 1.333333
0.240000 -0.941042 1.333333 1.333333
0.241000 -1.333333 1.333333 1.333333
0.242000 -1.333333 1.333333 1.333333
0.243000 -1.333333 1.333333 1.333333
0.244000 -1.333333 1.333333 1.333333
0.245000 -1.008939 1.058555 1.333333
0.246000 -0.601263 0.730479 1.251821
0.247000 -0.088345 0.336268 0.360855
0.248000 0.532179 -0.089816 -0.703341
0.249000 1.095778 -0.478168 -1.333333
0.250000 1.333333 -0.783145 -1.333333
0.251000 1.333333 -1.051678 -1.333333
0.252000 1.333333 -1.105402 -1.333333
0.253000 1.333333 -1.026925 -1.333333
0.254000 1.333333 -0.849390 -1.333333
0.255000 1.333333 -0.510410 -1.333333
0.256000 1.175385 -0.200473 -1.325671
0.257000 0.653560 0.185168 -0.372255
0.258000 0.045610 0.645276 0.635677
0.259000 -0.491047 1.013712 1.333333
0.260000 -0.935411 1.303424 1.333333
0.261000 -1.327490 1.333333 1.333333
0.262000 -1.333333 1.333333 1.333333
0.263000 -1.333333 1.333333 1.333333
0.264000 -1.327527 1.333333 1.333333
0.265000 -0.945231 1.078574 1.333333
0.266000 -0.565022 0.714987 1.206874
0.267000 -0.029650 0.314426 0.288312
0.268000 0.614271 -0.074240 -0.763577
0.269000 1.163401 -0.447982 -1.333333
0.270000 1.333333 -0.701121 -1.333333
0.271000 1.333333 -0.937160 -1.333333
0.272000 1.333333 -0.922629 -1.333333
0.273000 1.333333 -0.872413 -1.333333
0.274000 1.333333 -0.682157 -1.333333
0.275000 1.333333 -0.305775 -1.333333
0.276000 1.294362 0.074009 -1.171093
0.277000 0.804248 0.501722 -0.214423
0.278000 0.211575 0.995177 0.839353
0.279000 -0.358287 1.333333 1.333333
0.280000 -0.803627 1.333333 1.333333
0.281000 -1.146578 1.333333 1.333333
0.282000 -1.291822 1.333333 1.333333
0.283000 -1.309375 1.333333 1.333333
0.284000 -1.203056 1.333333 1.333333
0.285000 -0.826629 1.333333 1.333333
0.286000 -0.382082 1.259688 1.333333
0.287000 0.119243 0.893092 0.700277
0.288000 0.646679 0.451374 -0.270416
0.289000 1.191445 0.121266 -1.111681
0.290000 1.333333 -0.150753 -1.333333
0.291000 1.333333 -0.395826 -1.333333
0.292000 1.333333 -0.505054 -1.333333
0.293000 1.333333 -0.451062 -1.333333
0.294000 1.333333 -0.420413 -1.333333
0.295000 1.333333 -0.105258 -1.333333
0.296000 1.137764 0.186919 -0.890895
0.297000 0.590012 0.501924 -0.027336
0.298000 -0.008139 0.863001 0.936072
0.299000 -0.584949 1.167325 1.333333
0.300000 -1.034732 1.333333 1.333333
0.301000 -1.333333 1.333333 1.333333
0.302000 -1.333333 1.333333 1.333333
0.303000 -1.333333 1.333333 1.333333
0.304000 -1.333333 1.311218 1.333333
0.305000 -1.078808 0.933072 1.333333
0.306000 -0.648122 0.541150 1.127310
0.307000 -0.121302 0.136372 0.186004
0.308000 0.439182 -0.348920 -0.840129
0.309000 0.989727 -0.719063 -1.333333
0.310000 1.333333 -0.982283 -1.333333
0.311000 1.333333 -1.206282 -1.333333
0.312000 1.333333 -1.264019 -1.333333
0.313000 1.333333 -1.132981 -1.333333
0.314000 1.333333 -1.019729 -1.333333
0.315000 1.333333 -0.645244 -1.333333
0.316000 1.111613 -0.307584 -1.333333
0.317000 0.612931 0.127193 -0.428071
0.318000 0.004255 0.549522 0.611793
0.319000 -0.545105 0.957699 1.333333
0.320000 -1.003290 1.210042 1.333333
0.321000 -1.333333 1.333333 1.333333
0.322000 -1.333333 1.333333 1.333333
0.323000 -1.333333 1.333333 1.333333
0.324000 -1.333333 1.326636 1.333333
0.325000 -0.980797 1.021589 1.333333
0.326000 -0.509001 0.701218 1.170120
0.327000 0.001892 0.316171 0.224109
0.328000 0.569463 -0.165588 -0.767734
0.329000 1.102504 -0.500198 -1.333333
0.330000 1.333333 -0.768404 -1.333333
0.331000 1.333333 -0.968690 -1.333333
0.332000 1.333333 -1.048794 -1.333333
0.333000 1.333333 -0.977364 -1.333333
0.334000 1.333333 -0.843257 -1.333333
0.335000 1.333333 -0.476373 -1.333333
0.336000 1.151886 -0.142179 -1.217688
0.337000 0.633546 0.264935 -0.300020
0.338000 0.034837 0.691824 0.712036
0.339000 -0.508669 1.065149 1.333333
0.340000 -0.949695 1.314968 1.333333
0.341000 -1.333333 1.333333 1.333333
0.342000 -1.333333 1.333333 1.333333
0.343000 -1.333333 1.333333 1.333333
0.344000 -1.333333 1.333333 1.333333
0.345000 -1.001085 1.019307 1.333333
0.346000 -0.577399 0.687946 1.211250
0.347000 -0.068944 0.293501 0.287072
0.348000 0.498193 -0.163595 -0.738026
0.349000 1.030557 -0.562443 -1.333333
0.350000 1.333333 -0.806406 -1.333333
0.351000 1.333333 -1.034953 -1.333333
0.352000 1.333333 -1.040693 -1.333333
0.353000 1.333333 -0.989726 -1.333333
0.354000 1.333333 -0.834018 -1.333333
0.355000 1.333333 -0.474309 -1.333333
0.356000 1.158059 -0.112685 -1.222544
0.357000 0.643144 0.279534 -0.277249
0.358000 0.071532 0.750518 0.714954
0.359000 -0.458001 1.127175 1.333333
0.360000 -0.920648 1.333333 1.333333
0.361000 -1.328477 1.333333 1.333333
0.362000 -1.333333 1.333333 1.333333
0.363000 -1.333333 1.333333 1.333333
0.364000 -1.333333 1.333333 1.333333
0.365000 -0.987951 1.045132 1.333333
0.366000 -0.546936 0.732689 1.181751
0.367000 -0.043027 0.295898 0.287452
0.368000 0.534463 -0.127358 -0.751911
0.369000 1.121019 -0.512116 -1.333333
0.370000 1.333333 -0.754762 -1.333333
0.371000 1.333333 -0.983704 -1.333333
0.372000 1.333333 -1.018514 -1.333333
0.373000 1.333333 -0.978515 -1.333333
0.374000 1.333333 -0.804526 -1.333333
0.375000 1.333333 -0.455753 -1.333333
0.376000 1.157775 -0.104470 -1.200545
0.377000 0.625527 0.266458 -0.281817
0.378000 0.014398 0.693246 0.722612
0.379000 -0.530320 1.048093 1.333333
0.380000 -0.996856 1.301443 1.333333
0.381000 -1.333333 1.333333 1.333333
0.382000 -1.333333 1.333333 1.333333
0.383000 -1.333333 1.333333 1.333333
0.384000 -1.324087 1.333333 1.333333
0.385000 -0.914339 1.093523 1.333333
0.386000 -0.547527 0.690540 1.160961
0.387000 -0.063196 0.280608 0.262212
0.388000 0.563921 -0.118985 -0.751059
0.389000 1.140578 -0.511950 -1.333333
0.390000 1.333333 -0.773864 -1.333333
0.391000 1.333333 -0.965514 -1.333333
0.392000 1.333333 -0.977744 -1.333333
0.393000 1.333333 -0.911645 -1.333333
0.394000 1.333333 -0.780872 -1.333333
0.395000 1.333333 -0.416052 -1.333333
0.396000 1.187285 -0.089580 -1.183778
0.397000 0.642517 0.297890 -0.274489
0.398000 0.023040 0.728033 0.761678
0.399000 -0.532611 1.110714 1.333333
0.400000 -0.926652 1.333333 1.333333
0.401000 -1.277278 1.333333 1.333333
0.402000 -1.333333 1.333333 1.333333
0.403000 -1.333333 1.333333 1.333333
0.404000 -1.333333 1.333333 1.333333
0.405000 -0.971516 1.055989 1.333333
0.406000 -0.535922 0.688888 1.165220
0.407000 -0.033578 0.292914 0.233279
0.408000 0.572064 -0.147761 -0.756861
0.409000 1.101309 -0.544682 -1.333333
0.410000 1.333333 -0.775486 -1.333333
0.411000 1.333333 -1.003153 -1.333333
0.412000 1.333333 -1.053860 -1.333333
0.413000 1.333333 -0.956014 -1.333333
0.414000 1.333333 -0.776918 -1.333333
0.415000 1.333333 -0.414513 -1.333333
0.416000 1.145279 -0.096250 -1.148755
0.417000 0.608580 0.309530 -0.255347
0.418000 0.038431 0.733685 0.774605
0.419000 -0.503159 1.147381 1.333333
0.420000 -0.927915 1.333333 1.333333
0.421000 -1.307484 1.333333 1.333333
0.422000 -1.333333 1.333333 1.333333
0.423000 -1.333333 1.333333 1.333333
0.424000 -1.333333 1.333333 1.333333
0.425000 -0.944775 1.084890 1.333333
0.426000 -0.485437 0.694218 1.128619
0.427000 0.020461 0.291772 0.188176
0.428000 0.605143 -0.149407 -0.795616
0.429000 1.155185 -0.484963 -1.333333
0.430000 1.333333 -0.787575 -1.333333
0.431000 1.333333 -0.998376 -1.333333
0.432000 1.333333 -1.044857 -1.333333
0.433000 1.333333 -0.948260 -1.333333
0.434000 1.333333 -0.793102 -1.333333
0.435000 1.333333 -0.407497 -1.333333
0.436000 1.175679 -0.064220 -1.168649
0.437000 0.627443 0.337539 -0.228224
0.438000 0.025963 0.751083 0.780166
0.439000 -0.517382 1.133136 1.333333
0.440000 -0.918460 1.333333 1.333333
0.441000 -1.270241 1.333333 1.333333
0.442000 -1.333333 1.333333 1.333333
0.443000 -1.333333 1.333333 1.333333
0.444000 -1.299288 1.333333 1.333333
0.445000 -0.898157 1.102534 1.333333
0.446000 -0.473480 0.740536 1.147073
0.447000 0.072288 0.356616 0.207988
0.448000 0.654831 -0.096102 -0.789289
0.449000 1.196839 -0.466609 -1.333333
0.450000 1.333333 -0.740750 -1.333333
0.451000 1.333333 -0.952494 -1.333333
0.452000 1.333333 -1.001093 -1.333333
0.453000 1.333333 -0.895801 -1.333333
0.454000 1.333333 -0.740169 -1.333333
0.455000 1.333333 -0.390779 -1.333333
0.456000 1.141302 -0.035205 -1.126029
0.457000 0.657117 0.385961 -0.195006
0.458000 0.059746 0.810352 0.793331
0.459000 -0.499337 1.158643 1.333333
0.460000 -0.923882 1.333333 1.333333
0.461000 -1.288362 1.333333 1.333333
0.462000 -1.333333 1.333333 1.333333
0.463000 -1.333333 1.333333 1.333333
0.464000 -1.319468 1.333333 1.333333
0.465000 -0.879956 1.087128 1.333333
0.466000 -0.421808 0.767638 1.101058
0.467000 0.090262 0.375975 0.219114
0.468000 0.680346 -0.041329 -0.793044
0.469000 1.239521 -0.425232 -1.333333
0.470000 1.333333 -0.670531 -1.333333
0.471000 1.333333 -0.891859 -1.333333
0.472000 1.333333 -0.923418 -1.333333
0.473000 1.333333 -0.865294 -1.333333
0.474000 1.333333 -0.693981 -1.333333
0.475000 1.333333 -0.347643 -1.333333
0.476000 1.207461 0.023027 -1.137157
0.477000 0.688976 0.400606 -0.198184
0.478000 0.099942 0.845298 0.785305
0.479000 -0.437917 1.222520 1.333333
0.480000 -0.853601 1.333333 1.333333
0.481000 -1.219223 1.333333 1.333333
0.482000 -1.333333 1.333333 1.333333
0.483000 -1.333333 1.333333 1.333333
0.484000 -1.242413 1.333333 1.333333
0.485000 -0.848615 1.136090 1.333333
0.486000 -0.425483 0.791975 1.133888
0.487000 0.087476 0.356085 0.214334
0.488000 0.674777 -0.066687 -0.822862
0.489000 1.198489 -0.456801 -1.333333
0.490000 1.333333 -0.652117 -1.333333
0.491000 1.333333 -0.889513 -1.333333
0.492000 1.333333 -0.920377 -1.333333
0.493000 1.333333 -0.817792 -1.333333
0.494000 1.333333 -0.678913 -1.333333
0.495000 1.333333 -0.318175 -1.333333
0.496000 1.218199 0.064974 -1.088544
0.497000 0.671295 0.447572 -0.161731
0.498000 0.151157 0.908804 0.809974
0.499000 -0.405779 1.269778 1.333333
0.500000 -0.846509 1.333333 1.333333
0.501000 -1.211023 1.333333 1.333333
0.502000 -1.333333 1.333333 1.333333
0.503000 -1.333333 1.333333 1.333333
0.504000 -1.269875 1.333333 1.333333
0.505000 -0.860230 1.152442 1.333333
0.506000 -0.420842 0.767922 1.119870
0.507000 0.127110 0.384438 0.179106
0.508000 0.690879 -0.052160 -0.797889
0.509000 1.250476 -0.394170 -1.333333
0.510000 1.333333 -0.653274 -1.333333
0.511000 1.333333 -0.858091 -1.333333
0.512000 1.333333 -0.916697 -1.333333
0.513000 1.333333 -0.829448 -1.333333
0.514000 1.333333 -0.650604 -1.333333
0.515000 1.333333 -0.310494 -1.333333
0.516000 1.188034 0.019668 -1.066166
0.517000 0.653181 0.452658 -0.128061
0.518000 0.067886 0.856121 0.857997
0.519000 -0.478387 1.260342 1.333333
0.520000 -0.925614 1.333333 1.333333
0.521000 -1.300769 1.333333 1.333333
0.522000 -1.333333 1.333333 1.333333
0.523000 -1.333333 1.333333 1.333333
0.524000 -1.269661 1.333333 1.333333
0.525000 -0.884109 1.135341 1.333333
0.526000 -0.414397 0.739859 1.104431
0.527000 0.104660 0.353085 0.136293
0.528000 0.664591 -0.096169 -0.804510
0.529000 1.190413 -0.459923 -1.333333
0.530000 1.333333 -0.731944 -1.333333
0.531000 1.333333 -0.927862 -1.333333
0.532000 1.333333 -0.981737 -1.333333
0.533000 1.333333 -0.844467 -1.333333
0.534000 1.333333 -0.689282 -1.333333
0.535000 1.333333 -0.354451 -1.333333
0.536000 1.152484 -0.013553 -1.075703
0.537000 0.616397 0.408596 -0.135585
0.538000 0.062166 0.842398 0.868218
0.539000 -0.526093 1.224280 1.333333
0.540000 -0.996984 1.333333 1.333333
0.541000 -1.333333 1.333333 1.333333
0.542000 -1.333333 1.333333 1.333333
0.543000 -1.333333 1.333333 1.333333
0.544000 -1.319634 1.333333 1.333333
0.545000 -0.932219 1.075652 1.333333
0.546000 -0.408665 0.729338 1.078763
0.547000 0.099422 0.303529 0.123294
0.548000 0.688952 -0.095062 -0.860450
0.549000 1.194073 -0.474326 -1.333333
0.550000 1.333333 -0.752656 -1.333333
0.551000 1.333333 -0.937517 -1.333333
0.552000 1.333333 -0.987158 -1.333333
0.553000 1.333333 -0.904417 -1.333333
0.554000 1.333333 -0.755067 -1.333333
0.555000 1.333333 -0.459541 -1.333333
0.556000 1.085008 -0.055136 -1.086784
0.557000 0.554425 0.354933 -0.094524
0.558000 -0.065876 0.784377 0.900340
0.559000 -0.578918 1.174048 1.333333
0.560000 -0.999397 1.333333 1.333333
0.561000 -1.333333 1.333333 1.333333
0.562000 -1.333333 1.333333 1.333333
0.563000 -1.333333 1.333333 1.333333
0.564000 -1.333333 1.333333 1.333333
0.565000 -0.968745 0.999594 1.333333
0.566000 -0.517074 0.643312 1.082812
0.567000 0.019218 0.246076 0.165929
0.568000 0.586203 -0.156897 -0.821251
0.569000 1.143435 -0.554838 -1.333333
0.570000 1.333333 -0.822592 -1.333333
0.571000 1.333333 -1.031121 -1.333333
0.572000 1.333333 -1.048327 -1.333333
0.573000 1.333333 -0.995135 -1.333333
0.574000 1.333333 -0.782182 -1.333333
0.575000 1.333333 -0.423819 -1.333333
0.576000 1.088259 -0.010036 -1.032253
0.577000 0.547740 0.348183 -0.096392
0.578000 -0.030495 0.776560 0.855689
0.579000 -0.580202 1.154388 1.333333
0.580000 -0.976353 1.333333 1.333333
0.581000 -1.333333 1.333333 1.333333
0.582000 -1.333333 1.333333 1.333333
0.583000 -1.333333 1.333333 1.333333
0.584000 -1.333333 1.320119 1.333333
0.585000 -0.989763 0.965863 1.333333
0.586000 -0.463941 0.666363 1.063238
0.587000 0.030311 0.209540 0.114598
0.588000 0.619811 -0.194148 -0.889153
0.589000 1.196020 -0.566362 -1.333333
0.590000 1.333333 -0.786249 -1.333333
0.591000 1.333333 -1.047953 -1.333333
0.592000 1.333333 -1.070257 -1.333333
0.593000 1.333333 -1.010106 -1.333333
0.594000 1.333333 -0.799489 -1.333333
0.595000 1.333333 -0.493231 -1.333333
0.596000 0.979768 -0.126042 -1.038985
0.597000 0.523692 0.342186 -0.107861
0.598000 -0.042227 0.779350 0.890240
0.599000 -0.603638 1.144490 1.333333
0.600000 -1.069301 1.333333 1.333333
0.601000 -1.333333 1.333333 1.333333
0.602000 -1.333333 1.333333 1.333333
0.603000 -1.333333 1.333333 1.333333
0.604000 -1.333333 1.333333 1.333333
0.605000 -0.991832 0.956819 1.333333
0.606000 -0.555496 0.564002 1.073834
0.607000 -0.028341 0.160539 0.115755
0.608000 0.593520 -0.222903 -0.896796
0.609000 1.146762 -0.595157 -1.333333
0.610000 1.333333 -0.813464 -1.333333
0.611000 1.333333 -1.006960 -1.333333
0.612000 1.333333 -1.043659 -1.333333
0.613000 1.333333 -0.956756 -1.333333
0.614000 1.333333 -0.832658 -1.333333
0.615000 1.333333 -0.497995 -1.333333
0.616000 1.008120 -0.106028 -1.020681
0.617000 0.493927 0.328535 -0.096900
0.618000 -0.065907 0.758401 0.911946
0.619000 -0.610665 1.170111 1.333333
0.620000 -1.020810 1.333333 1.333333
0.621000 -1.333333 1.333333 1.333333
0.622000 -1.333333 1.333333 1.333333
0.623000 -1.333333 1.333333 1.333333
0.624000 -1.333333 1.319696 1.333333
0.625000 -0.955525 0.987295 1.333333
0.626000 -0.498210 0.582584 1.030586
0.627000 0.030559 0.191452 0.068199
0.628000 0.640404 -0.215249 -0.905261
0.629000 1.167788 -0.580572 -1.333333
0.630000 1.333333 -0.854573 -1.333333
0.631000 1.333333 -1.019282 -1.333333
0.632000 1.333333 -1.098646 -1.333333
0.633000 1.333333 -1.010180 -1.333333
0.634000 1.333333 -0.807242 -1.333333
0.635000 1.333333 -0.411320 -1.333333
0.636000 1.062282 -0.063211 -1.042757
0.637000 0.508270 0.332900 -0.112115
0.638000 -0.078260 0.739074 0.898266
0.639000 -0.622920 1.173103 1.333333
0.640000 -1.052023 1.333333 1.333333
0.641000 -1.333333 1.333333 1.333333
0.642000 -1.333333 1.333333 1.333333
0.643000 -1.333333 1.333333 1.333333
0.644000 -1.333333 1.333333 1.333333
0.645000 -0.939761 1.033574 1.333333
0.646000 -0.517997 0.601283 1.062315
0.647000 0.016133 0.198514 0.096113
0.648000 0.617025 -0.210117 -0.889333
0.649000 1.162976 -0.583527 -1.333333
0.650000 1.333333 -0.821010 -1.333333
0.651000 1.333333 -1.002524 -1.333333
0.652000 1.333333 -1.022552 -1.333333
0.653000 1.333333 -0.950285 -1.333333
0.654000 1.333333 -0.755159 -1.333333
0.655000 1.333333 -0.422857 -1.333333
0.656000 0.978858 -0.060173 -0.979361
0.657000 0.463312 0.332265 -0.043060
0.658000 -0.083894 0.800234 0.951354
0.659000 -0.647254 1.162624 1.333333
0.660000 -1.055275 1.333333 1.333333
0.661000 -1.333333 1.333333 1.333333
0.662000 -1.333333 1.333333 1.333333
0.663000 -1.333333 1.333333 1.333333
0.664000 -1.333333 1.333225 1.333333
0.665000 -0.978895 0.977528 1.333333
0.666000 -0.504730 0.605042 1.017184
0.667000 0.051773 0.181320 0.066992
0.668000 0.648748 -0.200914 -0.938482
0.669000 1.184329 -0.605921 -1.333333
0.670000 1.333333 -0.855199 -1.333333
0.671000 1.333333 -1.022144 -1.333333
0.672000 1.333333 -1.060365 -1.333333
0.673000 1.333333 -0.973321 -1.333333
0.674000 1.333333 -0.749258 -1.333333
0.675000 1.333333 -0.433282 -1.333333
0.676000 1.000964 -0.067389 -1.004043
0.677000 0.400971 0.296619 -0.002407
0.678000 -0.234317 0.691710 0.978583
0.679000 -0.760082 1.065516 1.333333
0.680000 -1.122962 1.333333 1.333333
0.681000 -1.333333 1.333333 1.333333
0.682000 -1.333333 1.333333 1.333333
0.683000 -1.333333 1.333333 1.333333
0.684000 -1.300886 1.333333 1.333333
0.685000 -0.913310 1.002424 1.333333
0.686000 -0.466540 0.616447 0.990878
0.687000 0.072471 0.186721 0.043879
0.688000 0.662755 -0.192646 -0.934748
0.689000 1.259163 -0.528389 -1.333333
0.690000 1.333333 -0.767724 -1.333333
0.691000 1.333333 -0.955885 -1.333333
0.692000 1.333333 -0.991017 -1.333333
0.693000 1.333333 -0.920201 -1.333333
0.694000 1.333333 -0.753931 -1.333333
0.695000 1.333333 -0.392632 -1.333333
0.696000 0.989297 -0.037646 -0.950337
0.697000 0.425662 0.352282 0.004604
0.698000 -0.122196 0.792605 0.980910
0.699000 -0.630845 1.187156 1.333333
0.700000 -1.048922 1.333333 1.333333
0.701000 -1.333333 1.333333 1.333333
0.702000 -1.333333 1.333333 1.333333
0.703000 -1.333333 1.333333 1.333333
0.704000 -1.330361 1.322378 1.333333
0.705000 -0.892282 1.032120 1.333333
0.706000 -0.411510 0.622005 0.969087
0.707000 0.109050 0.177659 -0.033173
0.708000 0.677318 -0.261034 -0.981272
0.709000 1.221834 -0.591145 -1.333333
0.710000 1.333333 -0.844379 -1.333333
0.711000 1.333333 -0.985863 -1.333333
0.712000 1.333333 -1.021390 -1.333333
0.713000 1.333333 -0.936582 -1.333333
0.714000 1.333333 -0.790565 -1.333333
0.715000 1.333333 -0.442144 -1.333333
0.716000 0.982612 -0.071361 -0.968101
0.717000 0.432565 0.356339 -0.024895
0.718000 -0.118403 0.767105 0.971407
0.719000 -0.683718 1.170471 1.333333
0.720000 -1.059890 1.333333 1.333333
0.721000 -1.333333 1.333333 1.333333
0.722000 -1.333333 1.333333 1.333333
0.723000 -1.333333 1.333333 1.333333
0.724000 -1.333333 1.275909 1.333333
0.725000 -0.986516 0.928144 1.333333
0.726000 -0.452639 0.577649 0.960535
0.727000 0.107598 0.192693 -0.007887
0.728000 0.659903 -0.233775 -0.952727
0.729000 1.211032 -0.599558 -1.333333
0.730000 1.333333 -0.859170 -1.333333
0.731000 1.333333 -1.036171 -1.333333
0.732000 1.333333 -1.069654 -1.333333
0.733000 1.333333 -0.953388 -1.333333
0.734000 1.333333 -0.794391 -1.333333
0.735000 1.333333 -0.473551 -1.333333
0.736000 0.948884 -0.105373 -0.996675
0.737000 0.448178 0.358833 -0.015643
0.738000 -0.149431 0.763556 0.973829
0.739000 -0.667591 1.172862 1.333333
0.740000 -1.069406 1.333333 1.333333
0.741000 -1.333333 1.333333 1.333333
0.742000 -1.333333 1.333333 1.333333
0.743000 -1.333333 1.333333 1.333333
0.744000 -1.316389 1.302303 1.333333
0.745000 -0.908261 0.984333 1.333333
0.746000 -0.437944 0.581015 0.928692
0.747000 0.130742 0.175510 -0.014823
0.748000 0.702335 -0.249009 -1.016328
0.749000 1.231877 -0.625176 -1.333333
0.750000 1.333333 -0.868482 -1.333333
0.751000 1.333333 -1.037674 -1.333333
0.752000 1.333333 -1.044126 -1.333333
0.753000 1.333333 -0.937949 -1.333333
0.754000 1.333333 -0.711783 -1.333333
0.755000 1.333333 -0.390397 -1.333333
0.756000 1.017657 0.016305 -0.959018
0.757000 0.451654 0.382569 0.015621
0.758000 -0.123224 0.823698 0.987994
0.759000 -0.689093 1.151241 1.333333
0.760000 -1.060235 1.333333 1.333333
0.761000 -1.333333 1.333333 1.333333
0.762000 -1.333333 1.333333 1.333333
0.763000 -1.333333 1.333333 1.333333
0.764000 -1.333333 1.270000 1.333333
0.765000 -0.915174 0.933346 1.333333
0.766000 -0.462704 0.546188 0.938529
0.767000 0.064037 0.100470 -0.010490
0.768000 0.695299 -0.253341 -1.019121
0.769000 1.249221 -0.610930 -1.333333
0.770000 1.333333 -0.849972 -1.333333
0.771000 1.333333 -1.017767 -1.333333
0.772000 1.333333 -1.043453 -1.333333
0.773000 1.333333 -0.984853 -1.333333
0.774000 1.333333 -0.760745 -1.333333
0.775000 1.333333 -0.482691 -1.333333
0.776000 0.960404 -0.063381 -0.971497
0.777000 0.474294 0.371895 -0.036183
0.778000 -0.133015 0.782234 0.964840
0.779000 -0.690108 1.144871 1.333333
0.780000 -1.106061 1.333333 1.333333
0.781000 -1.333333 1.333333 1.333333
0.782000 -1.333333 1.333333 1.333333
0.783000 -1.333333 1.333333 1.333333
0.784000 -1.333333 1.303934 1.333333
0.785000 -0.922567 0.955400 1.333333
0.786000 -0.381014 0.557590 0.879122
0.787000 0.163284 0.136306 -0.092812
0.788000 0.690645 -0.264838 -1.026123
0.789000 1.264798 -0.626321 -1.333333
0.790000 1.333333 -0.868320 -1.333333
0.791000 1.333333 -1.053948 -1.333333
0.792000 1.333333 -1.056723 -1.333333
0.793000 1.333333 -1.028537 -1.333333
0.794000 1.333333 -0.803248 -1.333333
0.795000 1.333333 -0.426430 -1.333333
0.796000 0.959910 -0.042032 -0.925069
0.797000 0.429900 0.388936 0.001712
0.798000 -0.158366 0.794211 1.018980
0.799000 -0.666796 1.211291 1.333333
0.800000 -1.120424 1.333333 1.333333
0.801000 -1.333333 1.333333 1.333333
0.802000 -1.333333 1.333333 1.333333
0.803000 -1.333333 1.333333 1.333333
0.804000 -1.298541 1.295739 1.333333
0.805000 -0.890730 0.971939 1.333333
0.806000 -0.433884 0.528987 0.908275
0.807000 0.082386 0.104226 -0.056403
0.808000 0.686156 -0.286883 -1.029855
0.809000 1.207912 -0.645080 -1.333333
0.810000 1.333333 -0.881810 -1.333333
0.811000 1.333333 -1.011041 -1.333333
0.812000 1.333333 -1.034237 -1.333333
0.813000 1.333333 -0.921187 -1.333333
0.814000 1.333333 -0.728315 -1.333333
0.815000 1.333333 -0.390843 -1.333333
0.816000 1.040738 0.020030 -0.943799
0.817000 0.498018 0.467929 0.021992
0.818000 -0.142789 0.813324 1.023883
0.819000 -0.676637 1.196249 1.333333
0.820000 -1.056506 1.333333 1.333333
0.821000 -1.333333 1.333333 1.333333
0.822000 -1.333333 1.333333 1.333333
0.823000 -1.333333 1.333333 1.333333
0.824000 -1.321197 1.287431 1.333333
0.825000 -0.953759 0.924390 1.333333
0.826000 -0.435749 0.521490 0.890176
0.827000 0.118652 0.131469 -0.083683
0.828000 0.746662 -0.261518 -1.066758
0.829000 1.266096 -0.636845 -1.333333
0.830000 1.333333 -0.901832 -1.333333
0.831000 1.333333 -1.043764 -1.333333
0.832000 1.333333 -1.057465 -1.333333
0.833000 1.333333 -0.958839 -1.333333
0.834000 1.333333 -0.741363 -1.333333
0.835000 1.333333 -0.424484 -1.333333
0.836000 0.952389 -0.021772 -0.912956
0.837000 0.430640 0.401616 0.047655
0.838000 -0.150547 0.802549 1.000754
0.839000 -0.702710 1.144558 1.333333
0.840000 -1.120714 1.333333 1.333333
0.841000 -1.333333 1.333333 1.333333
0.842000 -1.333333 1.333333 1.333333
0.843000 -1.333333 1.333333 1.333333
0.844000 -1.294696 1.285284 1.333333
0.845000 -0.889425 0.932062 1.333333
0.846000 -0.372526 0.580038 0.877145
0.847000 0.179325 0.168243 -0.087283
0.848000 0.680058 -0.293263 -1.058580
0.849000 1.231124 -0.682726 -1.333333
0.850000 1.333333 -0.867494 -1.333333
0.851000 1.333333 -1.020343 -1.333333
0.852000 1.333333 -1.065284 -1.333333
0.853000 1.333333 -1.026361 -1.333333
0.854000 1.333333 -0.716011 -1.333333
0.855000 1.333333 -0.421859 -1.333333
0.856000 0.906070 -0.030146 -0.885009
0.857000 0.385389 0.396319 0.092055
0.858000 -0.176673 0.821963 1.039328
0.859000 -0.700402 1.146605 1.333333
0.860000 -1.100899 1.333333 1.333333
0.861000 -1.333333 1.333333 1.333333
0.862000 -1.333333 1.333333 1.333333
0.863000 -1.333333 1.333333 1.333333
0.864000 -1.316913 1.248015 1.333333
0.865000 -0.900121 0.898542 1.333333
0.866000 -0.383084 0.538341 0.835803
0.867000 0.196835 0.117106 -0.150528
0.868000 0.713235 -0.330637 -1.138588
0.869000 1.257299 -0.704197 -1.333333
0.870000 1.333333 -0.891184 -1.333333
0.871000 1.333333 -1.055923 -1.333333
0.872000 1.333333 -1.078402 -1.333333
0.873000 1.333333 -0.977871 -1.333333
0.874000 1.333333 -0.758052 -1.333333
0.875000 1.333333 -0.418918 -1.333333
0.876000 1.002247 0.001772 -0.921553
0.877000 0.411528 0.381269 0.027270
0.878000 -0.171251 0.779571 1.027706
0.879000 -0.744061 1.155227 1.333333
0.880000 -1.121771 1.333333 1.333333
0.881000 -1.333333 1.333333 1.333333
0.882000 -1.333333 1.333333 1.333333
0.883000 -1.333333 1.333333 1.333333
0.884000 -1.254135 1.230138 1.333333
0.885000 -0.856044 0.917608 1.333333
0.886000 -0.406302 0.481920 0.842676
0.887000 0.126860 0.080682 -0.131091
0.888000 0.719611 -0.315203 -1.089822
0.889000 1.288622 -0.636002 -1.333333
0.890000 1.333333 -0.943672 -1.333333
0.891000 1.333333 -1.065500 -1.333333
0.892000 1.333333 -1.084315 -1.333333
0.893000 1.333333 -1.031517 -1.333333
0.894000 1.333333 -0.789828 -1.333333
0.895000 1.333333 -0.412431 -1.333333
0.896000 0.978959 -0.018943 -0.920767
0.897000 0.405445 0.418956 0.042332
0.898000 -0.172253 0.764292 1.028824
0.899000 -0.718245 1.151836 1.333333
0.900000 -1.130370 1.333333 1.333333
0.901000 -1.333333 1.333333 1.333333
0.902000 -1.333333 1.333333 1.333333
0.903000 -1.333333 1.333333 1.333333
0.904000 -1.264220 1.226412 1.333333
0.905000 -0.883768 0.900995 1.333333
0.906000 -0.386595 0.485523 0.836336
0.907000 0.173169 0.106591 -0.166318
0.908000 0.751681 -0.312619 -1.105164
0.909000 1.282879 -0.656897 -1.333333
0.910000 1.333333 -0.902654 -1.333333
0.911000 1.333333 -1.083302 -1.333333
0.912000 1.333333 -1.081088 -1.333333
0.913000 1.333333 -0.956201 -1.333333
0.914000 1.333333 -0.730888 -1.333333
0.915000 1.333333 -0.403085 -1.333333
0.916000 0.971630 0.000179 -0.917216
0.917000 0.382430 0.386768 0.069431
0.918000 -0.205551 0.788632 1.071039
0.919000 -0.746231 1.165719 1.333333
0.920000 -1.138678 1.333333 1.333333
0.921000 -1.333333 1.333333 1.333333
0.922000 -1.333333 1.333333 1.333333
0.923000 -1.333333 1.333333 1.333333
0.924000 -1.294186 1.212557 1.333333
0.925000 -0.885596 0.891458 1.333333
0.926000 -0.409235 0.466899 0.805898
0.927000 0.136833 0.032267 -0.172279
0.928000 0.731879 -0.328603 -1.140794
0.929000 1.300276 -0.676027 -1.333333
0.930000 1.333333 -0.888303 -1.333333
0.931000 1.333333 -1.060534 -1.333333
0.932000 1.333333 -1.045910 -1.333333
0.933000 1.333333 -1.019002 -1.333333
0.934000 1.333333 -0.760268 -1.333333
0.935000 1.333333 -0.402673 -1.333333
0.936000 0.925230 0.023571 -0.856635
0.937000 0.372761 0.441193 0.167669
0.938000 -0.189941 0.837109 1.096531
0.939000 -0.738472 1.168756 1.333333
0.940000 -1.157625 1.333333 1.333333
0.941000 -1.333333 1.333333 1.333333
0.942000 -1.333333 1.333333 1.333333
0.943000 -1.333333 1.333333 1.333333
0.944000 -1.240819 1.276313 1.333333
0.945000 -0.818093 0.951024 1.333333
0.946000 -0.324903 0.576591 0.815107
0.947000 0.213962 0.132330 -0.142536
0.948000 0.723801 -0.309721 -1.113452
0.949000 1.236065 -0.698496 -1.333333
0.950000 1.333333 -0.896905 -1.333333
0.951000 1.333333 -1.065833 -1.333333
0.952000 1.333333 -1.027900 -1.333333
0.953000 1.333333 -0.925012 -1.333333
0.954000 1.333333 -0.674854 -1.333333
0.955000 1.333333 -0.376340 -1.333333
0.956000 0.936766 0.032503 -0.860311
0.957000 0.402945 0.458689 0.158665
0.958000 -0.189456 0.892760 1.145367
0.959000 -0.693858 1.261732 1.333333
0.960000 -1.091294 1.333333 1.333333
0.961000 -1.333333 1.333333 1.333333
0.962000 -1.333333 1.333333 1.333333
0.963000 -1.333333 1.333333 1.333333
0.964000 -1.222733 1.271899 1.333333
0.965000 -0.813887 0.919817 1.333333
0.966000 -0.335886 0.494912 0.751831
0.967000 0.252804 0.081335 -0.248661
0.968000 0.833815 -0.288967 -1.199135
0.969000 1.328678 -0.666581 -1.333333
0.970000 1.333333 -0.939098 -1.333333
0.971000 1.333333 -1.097247 -1.333333
0.972000 1.333333 -1.051327 -1.333333
0.973000 1.333333 -0.991100 -1.333333
0.974000 1.333333 -0.747973 -1.333333
0.975000 1.333333 -0.392684 -1.333333
0.976000 0.931986 0.044764 -0.813236
0.977000 0.379423 0.465217 0.158085
0.978000 -0.190150 0.862766 1.142909
0.979000 -0.728724 1.214252 1.333333
0.980000 -1.119123 1.333333 1.333333
0.981000 -1.333333 1.333333 1.333333
0.982000 -1.333333 1.333333 1.333333
0.983000 -1.333333 1.333333 1.333333
0.984000 -1.261393 1.230092 1.333333
0.985000 -0.842020 0.927345 1.333333
0.986000 -0.325298 0.540557 0.807181
0.987000 0.210148 0.118157 -0.187922
0.988000 0.806666 -0.285358 -1.173180
0.989000 1.333333 -0.656094 -1.333333
0.990000 1.333333 -0.939754 -1.333333
0.991000 1.333333 -1.058348 -1.333333
0.992000 1.333333 -1.081102 -1.333333
0.993000 1.333333 -0.985149 -1.333333
0.994000 1.333333 -0.722538 -1.333333
0.995000 1.333333 -0.376782 -1.333333
0.996000 0.916147 0.010963 -0.838864
0.997000 0.406107 0.497023 0.161397
0.998000 -0.196919 0.847001 1.130532
0.999000 -0.748929 1.199303 1.333333
1.000000 -1.193720 1.333333 1.333333
1.001000 -1.333333 1.333333 1.333333
1.002000 -1.333333 1.333333 1.333333
1.003000 -1.333333 1.333333 1.333333
1.004000 -1.239168 1.211922 1.333333
1.005000 -0.847012 0.905277 1.333333
1.006000 -0.310121 0.472937 0.731423
1.007000 0.191139 0.063912 -0.202226
1.008000 0.772238 -0.320854 -1.156165
1.009000 1.333333 -0.661463 -1.333333
1.010000 1.333333 -0.933652 -1.333333
1.011000 1.333333 -1.058973 -1.333333
1.012000 1.333333 -1.096257 -1.333333
1.013000 1.333333 -1.018177 -1.333333
1.014000 1.333333 -0.744196 -1.333333
1.015000 1.333333 -0.447308 -1.333333
1.016000 0.839648 -0.055037 -0.827907
1.017000 0.308088 0.399449 0.173131
1.018000 -0.249240 0.840501 1.150601
1.019000 -0.751482 1.207099 1.333333
1.020000 -1.160111 1.333333 1.333333
1.021000 -1.333333 1.333333 1.333333
1.022000 -1.333333 1.333333 1.333333
1.023000 -1.333333 1.333333 1.333333
1.024000 -1.248849 1.216634 1.333333
1.025000 -0.872707 0.875194 1.333333
1.026000 -0.359429 0.481091 0.763114
1.027000 0.232782 0.056285 -0.244809
1.028000 0.799010 -0.348654 -1.215378
1.029000 1.300320 -0.720211 -1.333333
1.030000 1.333333 -0.961562 -1.333333
1.031000 1.333333 -1.097984 -1.333333
1.032000 1.333333 -1.088221 -1.333333
1.033000 1.333333 -0.983980 -1.333333
1.034000 1.333333 -0.694203 -1.333333
1.035000 1.333333 -0.395169 -1.333333
1.036000 0.871289 0.013987 -0.811103
1.037000 0.330449 0.427162 0.198622
1.038000 -0.239624 0.849671 1.145976
1.039000 -0.790101 1.176143 1.333333
1.040000 -1.217689 1.333333 1.333333
1.041000 -1.333333 1.333333 1.333333
1.042000 -1.333333 1.333333 1.333333
1.043000 -1.333333 1.333333 1.333333
1.044000 -1.214646 1.242262 1.333333
1.045000 -0.878735 0.843208 1.333333
1.046000 -0.362655 0.447903 0.740087
1.047000 0.203841 0.006284 -0.254146
1.048000 0.782811 -0.362544 -1.238772
1.049000 1.312456 -0.731463 -1.333333
1.050000 1.333333 -0.983691 -1.333333
1.051000 1.333333 -1.154038 -1.333333
1.052000 1.333333 -1.104590 -1.333333
1.053000 1.333333 -1.014010 -1.333333
1.054000 1.333333 -0.730815 -1.333333
1.055000 1.333333 -0.416362 -1.333333
1.056000 0.864741 -0.010547 -0.814970
1.057000 0.310556 0.419464 0.188194
1.058000 -0.248341 0.833640 1.143121
1.059000 -0.766546 1.184560 1.333333
1.060000 -1.164177 1.333333 1.333333
1.061000 -1.333333 1.333333 1.333333
1.062000 -1.333333 1.333333 1.333333
1.063000 -1.333333 1.333333 1.333333
1.064000 -1.241509 1.179716 1.333333
1.065000 -0.855896 0.840480 1.333333
1.066000 -0.318050 0.441296 0.708419
1.067000 0.249635 0.032569 -0.287434
1.068000 0.801717 -0.389390 -1.257277
1.069000 1.295793 -0.767556 -1.333333
1.070000 1.333333 -0.989141 -1.333333
1.071000 1.333333 -1.065936 -1.333333
1.072000 1.333333 -1.098547 -1.333333
1.073000 1.333333 -1.044486 -1.333333
1.074000 1.333333 -0.813783 -1.333333
1.075000 1.328410 -0.457477 -1.333333
1.076000 0.861932 -0.033928 -0.817909
1.077000 0.313705 0.425538 0.148379
1.078000 -0.228435 0.853566 1.160124
1.079000 -0.756547 1.220992 1.333333
1.080000 -1.187778 1.333333 1.333333
1.081000 -1.333333 1.333333 1.333333
1.082000 -1.333333 1.333333 1.333333
1.083000 -1.333333 1.333333 1.333333
1.084000 -1.201414 1.214426 1.333333
1.085000 -0.815556 0.902452 1.333333
1.086000 -0.267494 0.504980 0.721784
1.087000 0.348588 0.119858 -0.315414
1.088000 0.940163 -0.254680 -1.243422
1.089000 1.333333 -0.545743 -1.333333
1.090000 1.333333 -0.806843 -1.333333
1.091000 1.333333 -0.875777 -1.333333
1.092000 1.333333 -0.901951 -1.333333
1.093000 1.333333 -0.733925 -1.333333
1.094000 1.333333 -0.444969 -1.333333
1.095000 1.333333 -0.062838 -1.333333
1.096000 0.931382 0.384587 -0.480439
1.097000 0.425714 0.903881 0.536954
1.098000 -0.123808 1.313907 1.333333
1.099000 -0.619046 1.333333 1.333333
1.100000 -0.974906 1.333333 1.333333
1.101000 -1.258462 1.333333 1.333333
1.102000 -1.333333 1.333333 1.333333
1.103000 -1.296941 1.333333 1.333333
1.104000 -1.064094 1.333333 1.333333
1.105000 -0.682905 1.333333 1.333333
1.106000 -0.195809 1.108010 1.249228
1.107000 0.338361 0.648038 0.233884
1.108000 0.861546 0.194861 -0.751977
1.109000 1.333333 -0.196444 -1.333333
1.110000 1.333333 -0.506015 -1.333333
1.111000 1.333333 -0.675481 -1.333333
1.112000 1.333333 -0.745054 -1.333333
1.113000 1.333333 -0.736312 -1.333333
1.114000 1.333333 -0.483535 -1.333333
1.115000 1.286260 -0.231353 -1.333333
1.116000 0.735437 0.093522 -0.596037
1.117000 0.156014 0.444665 0.380644
1.118000 -0.429851 0.828220 1.315567
1.119000 -0.956117 1.121543 1.333333
1.120000 -1.333333 1.333333 1.333333
1.121000 -1.333333 1.333333 1.333333
1.122000 -1.333333 1.333333 1.333333
1.123000 -1.333333 1.293652 1.333333
1.124000 -1.276736 1.010408 1.333333
1.125000 -0.878774 0.662212 1.333333
1.126000 -0.348297 0.275243 0.545760
1.127000 0.193116 -0.188793 -0.437155
1.128000 0.734942 -0.578249 -1.333333
1.129000 1.254326 -0.949397 -1.333333
1.130000 1.333333 -1.186484 -1.333333
1.131000 1.333333 -1.294725 -1.333333
1.132000 1.333333 -1.230570 -1.333333
1.133000 1.333333 -1.137090 -1.333333
1.134000 1.333333 -0.827779 -1.333333
1.135000 1.272100 -0.558251 -1.333333
1.136000 0.782091 -0.101840 -0.817783
1.137000 0.194781 0.308454 0.190121
1.138000 -0.349555 0.762437 1.176587
1.139000 -0.832075 1.127298 1.333333
1.140000 -1.247794 1.333333 1.333333
1.141000 -1.333333 1.333333 1.333333
1.142000 -1.333333 1.333333 1.333333
1.143000 -1.333333 1.333333 1.333333
1.144000 -1.181090 1.138438 1.333333
1.145000 -0.810863 0.798564 1.333333
1.146000 -0.256511 0.459765 0.643751
1.147000 0.335190 0.021747 -0.384324
1.148000 0.841910 -0.408637 -1.299929
1.149000 1.328968 -0.750940 -1.333333
1.150000 1.333333 -1.012858 -1.333333
1.151000 1.333333 -1.140033 -1.333333
1.152000 1.333333 -1.086213 -1.333333
1.153000 1.333333 -0.980720 -1.333333
1.154000 1.333333 -0.720877 -1.333333
1.155000 1.333333 -0.365081 -1.333333
1.156000 0.848198 0.039025 -0.739469
1.157000 0.314963 0.485822 0.218921
1.158000 -0.315293 0.835369 1.231959
1.159000 -0.860598 1.174150 1.333333
1.160000 -1.254620 1.333333 1.333333
1.161000 -1.333333 1.333333 1.333333
1.162000 -1.333333 1.333333 1.333333
1.163000 -1.333333 1.333333 1.333333
1.164000 -1.245702 1.115472 1.333333
1.165000 -0.825647 0.826980 1.333333
1.166000 -0.317198 0.382374 0.657981
1.167000 0.257431 -0.037316 -0.389343
1.168000 0.837413 -0.445758 -1.322949
1.169000 1.323769 -0.771845 -1.333333
1.170000 1.333333 -1.034391 -1.333333
1.171000 1.333333 -1.098779 -1.333333
1.172000 1.333333 -1.095834 -1.333333
1.173000 1.333333 -0.968845 -1.333333
1.174000 1.333333 -0.686335 -1.333333
1.175000 1.333333 -0.367642 -1.333333
1.176000 0.854757 0.036827 -0.752836
1.177000 0.262835 0.473797 0.269679
1.178000 -0.303883 0.884631 1.257791
1.179000 -0.842878 1.201552 1.333333
1.180000 -1.230793 1.333333 1.333333
1.181000 -1.333333 1.333333 1.333333
1.182000 -1.333333 1.333333 1.333333
1.183000 -1.333333 1.333333 1.333333
1.184000 -1.201183 1.148253 1.333333
1.185000 -0.812681 0.826488 1.333333
1.186000 -0.310166 0.380874 0.628920
1.187000 0.249941 -0.063279 -0.369247
1.188000 0.792897 -0.497796 -1.332984
1.189000 1.333333 -0.777408 -1.333333
1.190000 1.333333 -1.028549 -1.333333
1.191000 1.333333 -1.143923 -1.333333
1.192000 1.333333 -1.111895 -1.333333
1.193000 1.333333 -1.030632 -1.333333
1.194000 1.333333 -0.672763 -1.333333
1.195000 1.333333 -0.371327 -1.333333
1.196000 0.853964 0.073098 -0.744008
1.197000 0.263910 0.478548 0.289381
1.198000 -0.315745 0.876896 1.245974
1.199000 -0.804605 1.211284 1.333333
1.200000 -1.256405 1.333333 1.333333
1.201000 -1.333333 1.333333 1.333333
1.202000 -1.333333 1.333333 1.333333
1.203000 -1.333333 1.333333 1.333333
1.204000 -1.195214 1.134260 1.333333
1.205000 -0.785789 0.806665 1.333333
1.206000 -0.262864 0.437354 0.632996
1.207000 0.311705 -0.016931 -0.370842
1.208000 0.894596 -0.409519 -1.333333
1.209000 1.333333 -0.744158 -1.333333
1.210000 1.333333 -1.022408 -1.333333
1.211000 1.333333 -1.155035 -1.333333
1.212000 1.333333 -1.113711 -1.333333
1.213000 1.333333 -1.041617 -1.333333
1.214000 1.333333 -0.691172 -1.333333
1.215000 1.333333 -0.386488 -1.333333
1.216000 0.835593 0.033166 -0.742601
1.217000 0.219597 0.461795 0.325133
1.218000 -0.353051 0.899411 1.300974
1.219000 -0.835609 1.212344 1.333333
1.220000 -1.242677 1.333333 1.333333
1.221000 -1.333333 1.333333 1.333333
1.222000 -1.333333 1.333333 1.333333
1.223000 -1.333333 1.333333 1.333333
1.224000 -1.192825 1.136205 1.333333
1.225000 -0.777304 0.813514 1.333333
1.226000 -0.240687 0.421053 0.601722
1.227000 0.328490 -0.036590 -0.418561
1.228000 0.908347 -0.414706 -1.333333
1.229000 1.333333 -0.754919 -1.333333
1.230000 1.333333 -1.030963 -1.333333
1.231000 1.333333 -1.099980 -1.333333
1.232000 1.333333 -1.059417 -1.333333
1.233000 1.333333 -0.951317 -1.333333
1.234000 1.333333 -0.693950 -1.333333
1.235000 1.332731 -0.365343 -1.333333
1.236000 0.815750 0.047185 -0.706237
1.237000 0.221899 0.459973 0.306520
1.238000 -0.317557 0.900236 1.302132
1.239000 -0.817512 1.246762 1.333333
1.240000 -1.259282 1.333333 1.333333
1.241000 -1.333333 1.333333 1.333333
1.242000 -1.333333 1.333333 1.333333
1.243000 -1.333333 1.333333 1.333333
1.244000 -1.137253 1.150554 1.333333
1.245000 -0.755577 0.824339 1.333333
1.246000 -0.227016 0.421275 0.595478
1.247000 0.333035 -0.017137 -0.441841
1.248000 0.907532 -0.423292 -1.333333
1.249000 1.333333 -0.720309 -1.333333
1.250000 1.333333 -0.998879 -1.333333
1.251000 1.333333 -1.075159 -1.333333
1.252000 1.333333 -1.073845 -1.333333
1.253000 1.333333 -0.939759 -1.333333
1.254000 1.333333 -0.647286 -1.333333
1.255000 1.333333 -0.309460 -1.333333
1.256000 0.790283 0.042062 -0.676652
1.257000 0.190455 0.462540 0.340093
1.258000 -0.317580 0.896531 1.290360
1.259000 -0.791203 1.268555 1.333333
1.260000 -1.190427 1.333333 1.333333
1.261000 -1.333333 1.333333 1.333333
1.262000 -1.333333 1.333333 1.333333
1.263000 -1.333333 1.333333 1.333333
1.264000 -1.132472 1.156143 1.333333
1.265000 -0.758047 0.828956 1.333333
1.266000 -0.264124 0.393364 0.596805
1.267000 0.333991 -0.054065 -0.461644
1.268000 0.933672 -0.430696 -1.333333
1.269000 1.333333 -0.745239 -1.333333
1.270000 1.333333 -0.998645 -1.333333
1.271000 1.333333 -1.076037 -1.333333
1.272000 1.333333 -1.056978 -1.333333
1.273000 1.333333 -0.949417 -1.333333
1.274000 1.333333 -0.608555 -1.333333
1.275000 1.333333 -0.310843 -1.333333
1.276000 0.846628 0.110857 -0.677565
1.277000 0.275269 0.530591 0.349826
1.278000 -0.307828 0.941945 1.299923
1.279000 -0.832965 1.234470 1.333333
1.280000 -1.219896 1.333333 1.333333
1.281000 -1.333333 1.333333 1.333333
1.282000 -1.333333 1.333333 1.333333
1.283000 -1.333333 1.333333 1.333333
1.284000 -1.108822 1.158414 1.333333
1.285000 -0.707074 0.828291 1.333333
1.286000 -0.196580 0.453659 0.576076
1.287000 0.398058 0.003312 -0.440295
1.288000 0.983065 -0.377463 -1.333333
1.289000 1.333333 -0.712399 -1.333333
1.290000 1.333333 -0.931460 -1.333333
1.291000 1.333333 -1.032907 -1.333333
1.292000 1.333333 -1.001935 -1.333333
1.293000 1.333333 -0.883616 -1.333333
1.294000 1.333333 -0.525733 -1.333333
1.295000 1.333333 -0.230155 -1.333333
1.296000 0.847120 0.141098 -0.638880
1.297000 0.276783 0.580102 0.386754
1.298000 -0.283781 0.992003 1.333333
1.299000 -0.814832 1.257379 1.333333
1.300000 -1.218881 1.333333 1.333333
1.301000 -1.333333 1.333333 1.333333
1.302000 -1.333333 1.333333 1.333333
1.303000 -1.333333 1.333333 1.333333
1.304000 -1.043771 1.237554 1.333333
1.305000 -0.686876 0.874810 1.333333
1.306000 -0.194105 0.461023 0.601095
1.307000 0.454402 0.077133 -0.450614
1.308000 1.019925 -0.335456 -1.333333
1.309000 1.333333 -0.686000 -1.333333
1.310000 1.333333 -0.926405 -1.333333
1.311000 1.333333 -1.028771 -1.333333
1.312000 1.333333 -1.038277 -1.333333
1.313000 1.333333 -0.873858 -1.333333
1.314000 1.333333 -0.542680 -1.333333
1.315000 1.333333 -0.217291 -1.333333
1.316000 0.830960 0.145606 -0.601603
1.317000 0.259246 0.603233 0.405663
1.318000 -0.318874 0.987733 1.333333
1.319000 -0.794499 1.333333 1.333333
1.320000 -1.221566 1.333333 1.333333
1.321000 -1.333333 1.333333 1.333333
1.322000 -1.333333 1.333333 1.333333
1.323000 -1.333333 1.333333 1.333333
1.324000 -1.084553 1.172710 1.333333
1.325000 -0.669735 0.875204 1.333333
1.326000 -0.168069 0.466598 0.588822
1.327000 0.456501 0.052342 -0.491079
1.328000 1.030313 -0.354776 -1.333333
1.329000 1.333333 -0.652190 -1.333333
1.330000 1.333333 -0.923154 -1.333333
1.331000 1.333333 -0.993091 -1.333333
1.332000 1.333333 -0.971333 -1.333333
1.333000 1.333333 -0.879365 -1.333333
1.334000 1.333333 -0.566066 -1.333333
1.335000 1.326104 -0.246742 -1.333333
1.336000 0.814367 0.162563 -0.599865
1.337000 0.248127 0.622508 0.442290
1.338000 -0.336465 1.006283 1.333333
1.339000 -0.834705 1.300999 1.333333
1.340000 -1.283954 1.333333 1.333333
1.341000 -1.333333 1.333333 1.333333
1.342000 -1.333333 1.333333 1.333333
1.343000 -1.333333 1.333333 1.333333
1.344000 -1.145048 1.161582 1.333333
1.345000 -0.708281 0.837512 1.333333
1.346000 -0.216252 0.444595 0.598870
1.347000 0.368351 -0.000252 -0.431649
1.348000 0.938552 -0.415140 -1.333333
1.349000 1.333333 -0.715429 -1.333333
1.350000 1.333333 -0.962160 -1.333333
1.351000 1.333333 -1.052416 -1.333333
1.352000 1.333333 -1.022141 -1.333333
1.353000 1.333333 -0.917901 -1.333333
1.354000 1.333333 -0.606536 -1.333333
1.355000 1.282363 -0.300775 -1.333333
1.356000 0.768066 0.127250 -0.605285
1.357000 0.213535 0.566932 0.452943
1.358000 -0.366718 0.956878 1.333333
1.359000 -0.868750 1.208579 1.333333
1.360000 -1.268770 1.333333 1.333333
1.361000 -1.333333 1.333333 1.333333
1.362000 -1.333333 1.333333 1.333333
1.363000 -1.333333 1.333333 1.333333
1.364000 -1.116431 1.071400 1.333333
1.365000 -0.744780 0.726806 1.333333
1.366000 -0.287680 0.352105 0.581561
1.367000 0.285815 -0.129921 -0.459068
1.368000 0.801202 -0.458516 -1.333333
1.369000 1.327624 -0.751180 -1.333333
1.370000 1.333333 -0.945638 -1.333333
1.371000 1.333333 -1.086484 -1.333333
1.372000 1.333333 -1.090073 -1.333333
1.373000 1.333333 -0.979975 -1.333333
1.374000 1.333333 -0.643030 -1.333333
1.375000 1.227153 -0.364164 -1.333333
1.376000 0.765786 0.021902 -0.673673
1.377000 0.189572 0.507199 0.385515
1.378000 -0.414554 0.934224 1.333333
1.379000 -0.895303 1.234561 1.333333
1.380000 -1.333333 1.333333 1.333333
1.381000 -1.333333 1.333333 1.333333
1.382000 -1.333333 1.333333 1.333333
1.383000 -1.333333 1.333333 1.333333
1.384000 -1.146952 1.000844 1.333333
1.385000 -0.817169 0.670751 1.333333
1.386000 -0.288517 0.336265 0.567428
1.387000 0.340562 -0.083078 -0.494609
1.388000 0.872650 -0.461592 -1.333333
1.389000 1.333333 -0.744346 -1.333333
1.390000 1.333333 -0.993633 -1.333333
1.391000 1.333333 -1.124204 -1.333333
1.392000 1.333333 -1.116432 -1.333333
1.393000 1.333333 -0.974313 -1.333333
1.394000 1.333333 -0.681708 -1.333333
1.395000 1.256571 -0.328486 -1.333333
1.396000 0.768792 0.025623 -0.651238
1.397000 0.158306 0.494377 0.387188
1.398000 -0.432883 0.874887 1.333333
1.399000 -0.918371 1.201328 1.333333
1.400000 -1.333333 1.333333 1.333333
1.401000 -1.333333 1.333333 1.333333
1.402000 -1.333333 1.333333 1.333333
1.403000 -1.333333 1.333333 1.333333
1.404000 -1.108817 0.991943 1.333333
1.405000 -0.754067 0.690454 1.333333
1.406000 -0.277449 0.296373 0.532746
1.407000 0.283567 -0.155533 -0.527856
1.408000 0.823997 -0.540018 -1.333333
1.409000 1.331239 -0.805252 -1.333333
1.410000 1.333333 -1.016541 -1.333333
1.411000 1.333333 -1.113673 -1.333333
1.412000 1.333333 -1.129978 -1.333333
1.413000 1.333333 -1.045688 -1.333333
1.414000 1.333333 -0.716427 -1.333333
1.415000 1.215522 -0.374453 -1.333333
1.416000 0.726749 0.031951 -0.619526
1.417000 0.101507 0.465595 0.431742
1.418000 -0.467483 0.876940 1.333333
1.419000 -0.935624 1.175212 1.333333
1.420000 -1.333333 1.333333 1.333333
1.421000 -1.333333 1.333333 1.333333
1.422000 -1.333333 1.333333 1.333333
1.423000 -1.333333 1.323880 1.333333
1.424000 -1.165775 0.939051 1.333333
1.425000 -0.779332 0.654135 1.333333
1.426000 -0.259215 0.343412 0.531868
1.427000 0.358306 -0.093713 -0.518899
1.428000 0.870260 -0.483523 -1.333333
1.429000 1.333333 -0.804853 -1.333333
1.430000 1.333333 -1.028398 -1.333333
1.431000 1.333333 -1.124666 -1.333333
1.432000 1.333333 -1.118702 -1.333333
1.433000 1.333333 -1.028647 -1.333333
1.434000 1.333333 -0.695407 -1.333333
1.435000 1.166637 -0.409359 -1.333333
1.436000 0.650014 -0.025988 -0.636999
1.437000 0.106679 0.453127 0.431235
1.438000 -0.477674 0.888144 1.333333
1.439000 -0.983103 1.164133 1.333333
1.440000 -1.333333 1.333333 1.333333
1.441000 -1.333333 1.333333 1.333333
1.442000 -1.333333 1.333333 1.333333
1.443000 -1.333333 1.333333 1.333333
1.444000 -1.139049 1.001463 1.333333
1.445000 -0.738171 0.691556 1.333333
1.446000 -0.244533 0.311843 0.464139
1.447000 0.327334 -0.177482 -0.545195
1.448000 0.879698 -0.514868 -1.333333
1.449000 1.333333 -0.802828 -1.333333
1.450000 1.333333 -1.021636 -1.333333
1.451000 1.333333 -1.139357 -1.333333
1.452000 1.333333 -1.141836 -1.333333
1.453000 1.333333 -1.061081 -1.333333
1.454000 1.333333 -0.673517 -1.333333
1.455000 1.225961 -0.345469 -1.333333
1.456000 0.721273 0.061349 -0.598886
1.457000 0.117237 0.503219 0.461900
1.458000 -0.464944 0.906035 1.333333
1.459000 -0.939557 1.221433 1.333333
1.460000 -1.333333 1.333333 1.333333
1.461000 -1.333333 1.333333 1.333333
1.462000 -1.333333 1.333333 1.333333
1.463000 -1.333333 1.333333 1.333333
1.464000 -1.141880 0.983288 1.333333
1.465000 -0.758964 0.670653 1.333333
1.466000 -0.260895 0.299798 0.499268
1.467000 0.339387 -0.125606 -0.536781
1.468000 0.882125 -0.512224 -1.333333
1.469000 1.333333 -0.825865 -1.333333
1.470000 1.333333 -1.057949 -1.333333
1.471000 1.333333 -1.101650 -1.333333
1.472000 1.333333 -1.105695 -1.333333
1.473000 1.333333 -0.995824 -1.333333
1.474000 1.333333 -0.690452 -1.333333
1.475000 1.201850 -0.340309 -1.333333
1.476000 0.676293 0.029798 -0.562009
1.477000 0.085250 0.492011 0.452971
1.478000 -0.482546 0.891572 1.333333
1.479000 -0.995724 1.199160 1.333333
1.480000 -1.333333 1.333333 1.333333
1.481000 -1.333333 1.333333 1.333333
1.482000 -1.333333 1.333333 1.333333
1.483000 -1.333333 1.323819 1.333333
1.484000 -1.173492 0.962465 1.333333
1.485000 -0.767057 0.651951 1.333333
1.486000 -0.262170 0.262168 0.471371
1.487000 0.369316 -0.125760 -0.568589
1.488000 0.921832 -0.541231 -1.333333
1.489000 1.333333 -0.814025 -1.333333
1.490000 1.333333 -1.055227 -1.333333
1.491000 1.333333 -1.148699 -1.333333
1.492000 1.333333 -1.125145 -1.333333
1.493000 1.333333 -1.013581 -1.333333
1.494000 1.333333 -0.656909 -1.333333
1.495000 1.210032 -0.335797 -1.333333
1.496000 0.681563 0.043253 -0.577614
1.497000 0.092954 0.496632 0.478527
1.498000 -0.491172 0.883337 1.333333
1.499000 -0.985264 1.192861 1.333333
1.500000 -1.333333 1.333333 1.333333
1.501000 -1.333333 1.333333 1.333333
1.502000 -1.333333 1.333333 1.333333
1.503000 -1.333333 1.333333 1.333333
1.504000 -1.137547 0.987455 1.333333
1.505000 -0.750404 0.662204 1.333333
1.506000 -0.250386 0.267843 0.447566
1.507000 0.356113 -0.171358 -0.575561
1.508000 0.877139 -0.565039 -1.333333
1.509000 1.325119 -0.864011 -1.333333
1.510000 1.333333 -1.058813 -1.333333
1.511000 1.333333 -1.137249 -1.333333
1.512000 1.333333 -1.146667 -1.333333
1.513000 1.333333 -1.066287 -1.333333
1.514000 1.333333 -0.678384 -1.333333
1.515000 1.211165 -0.320370 -1.333333
1.516000 0.706358 0.118919 -0.541698
1.517000 0.068075 0.491294 0.500009
1.518000 -0.494148 0.892671 1.333333
1.519000 -0.981804 1.177238 1.333333
1.520000 -1.333333 1.333333 1.333333
1.521000 -1.333333 1.333333 1.333333
1.522000 -1.333333 1.333333 1.333333
1.523000 -1.333333 1.310096 1.333333
1.524000 -1.171769 0.970053 1.333333
1.525000 -0.758249 0.624020 1.333333
1.526000 -0.285268 0.236543 0.431128
1.527000 0.356934 -0.189623 -0.602239
1.528000 0.901006 -0.562199 -1.333333
1.529000 1.333333 -0.858666 -1.333333
1.530000 1.333333 -1.044544 -1.333333
1.531000 1.333333 -1.144399 -1.333333
1.532000 1.333333 -1.113069 -1.333333
1.533000 1.333333 -1.007918 -1.333333
1.534000 1.333333 -0.634326 -1.333333
1.535000 1.161547 -0.348684 -1.333333
1.536000 0.621263 0.051975 -0.503514
1.537000 0.044170 0.515535 0.545044
1.538000 -0.515945 0.922189 1.333333
1.539000 -0.995436 1.194792 1.333333
1.540000 -1.333333 1.333333 1.333333
1.541000 -1.333333 1.333333 1.333333
1.542000 -1.333333 1.333333 1.333333
1.543000 -1.333333 1.310090 1.333333
1.544000 -1.234789 0.927700 1.333333
1.545000 -0.757529 0.606563 1.280822
1.546000 -0.225349 0.256226 0.406732
1.547000 0.358951 -0.171377 -0.602214
1.548000 0.953532 -0.531012 -1.333333
1.549000 1.333333 -0.819277 -1.333333
1.550000 1.333333 -1.052004 -1.333333
1.551000 1.333333 -1.172730 -1.333333
1.552000 1.333333 -1.144201 -1.333333
1.553000 1.333333 -1.010653 -1.333333
1.554000 1.333333 -0.642312 -1.333333
1.555000 1.197144 -0.284525 -1.333333
1.556000 0.655017 0.088193 -0.487209
1.557000 0.038892 0.508381 0.518850
1.558000 -0.549403 0.882324 1.333333
1.559000 -0.981303 1.224341 1.333333
1.560000 -1.333333 1.333333 1.333333
1.561000 -1.333333 1.333333 1.333333
1.562000 -1.333333 1.333333 1.333333
1.563000 -1.333333 1.291178 1.333333
1.564000 -1.171459 0.960064 1.333333
1.565000 -0.737708 0.648237 1.312449
1.566000 -0.247452 0.235321 0.438056
1.567000 0.366939 -0.177747 -0.609011
1.568000 0.915144 -0.596355 -1.333333
1.569000 1.333333 -0.848304 -1.333333
1.570000 1.333333 -1.086905 -1.333333
1.571000 1.333333 -1.153526 -1.333333
1.572000 1.333333 -1.140476 -1.333333
1.573000 1.333333 -1.022206 -1.333333
1.574000 1.333333 -0.669744 -1.333333
1.575000 1.189621 -0.330904 -1.333333
1.576000 0.630053 0.081744 -0.477244
1.577000 0.027123 0.504631 0.527691
1.578000 -0.558972 0.874224 1.333333
1.579000 -1.030381 1.197611 1.333333
1.580000 -1.333333 1.333333 1.333333
1.581000 -1.333333 1.333333 1.333333
1.582000 -1.333333 1.333333 1.333333
1.583000 -1.333333 1.333333 1.333333
1.584000 -1.156343 0.978406 1.333333
1.585000 -0.737707 0.606799 1.292713
1.586000 -0.212514 0.252303 0.398102
1.587000 0.390509 -0.171218 -0.640357
1.588000 0.928319 -0.591732 -1.333333
1.589000 1.333333 -0.840714 -1.333333
1.590000 1.333333 -1.085365 -1.333333
1.591000 1.333333 -1.173038 -1.333333
1.592000 1.333333 -1.099874 -1.333333
1.593000 1.333333 -1.010732 -1.333333
1.594000 1.333333 -0.664534 -1.333333
1.595000 1.126053 -0.347237 -1.333333
1.596000 0.616900 0.067473 -0.496930
1.597000 0.029888 0.492491 0.545058
1.598000 -0.557899 0.908241 1.333333
1.599000 -1.009538 1.204308 1.333333
1.600000 -1.333333 1.333333 1.333333
1.601000 -1.333333 1.333333 1.333333
1.602000 -1.333333 1.333333 1.333333
1.603000 -1.333333 1.251817 1.333333
1.604000 -1.180796 0.944972 1.333333
1.605000 -0.712373 0.583729 1.248092
1.606000 -0.197450 0.224736 0.348975
1.607000 0.378832 -0.204347 -0.633179
1.608000 0.912220 -0.598663 -1.333333
1.609000 1.333333 -0.888081 -1.333333
1.610000 1.333333 -1.123385 -1.333333
1.611000 1.333333 -1.222956 -1.333333
1.612000 1.333333 -1.146424 -1.333333
1.613000 1.333333 -1.031143 -1.333333
1.614000 1.333333 -0.647592 -1.333333
1.615000 1.124503 -0.331206 -1.333333
1.616000 0.575972 0.077442 -0.445374
1.617000 -0.031592 0.471028 0.571003
1.618000 -0.567280 0.889508 1.333333
1.619000 -0.996588 1.203796 1.333333
1.620000 -1.333333 1.333333 1.333333
1.621000 -1.333333 1.333333 1.333333
1.622000 -1.333333 1.333333 1.333333
1.623000 -1.333333 1.289894 1.333333
1.624000 -1.143396 0.960945 1.333333
1.625000 -0.678666 0.620011 1.235483
1.626000 -0.184420 0.228077 0.346775
1.627000 0.391648 -0.228320 -0.676862
1.628000 0.946789 -0.612347 -1.333333
1.629000 1.333333 -0.900980 -1.333333
1.630000 1.333333 -1.122186 -1.333333
1.631000 1.333333 -1.226635 -1.333333
1.632000 1.333333 -1.192808 -1.333333
1.633000 1.333333 -1.021558 -1.333333
1.634000 1.333333 -0.685610 -1.333333
1.635000 1.117487 -0.340605 -1.333333
1.636000 0.623391 0.088761 -0.455775
1.637000 0.012597 0.538447 0.572191
1.638000 -0.563397 0.904620 1.333333
1.639000 -1.019984 1.213740 1.333333
1.640000 -1.333333 1.333333 1.333333
1.641000 -1.333333 1.333333 1.333333
1.642000 -1.333333 1.333333 1.333333
1.643000 -1.333333 1.301478 1.333333
1.644000 -1.193669 0.895577 1.333333
1.645000 -0.737032 0.561443 1.219661
1.646000 -0.192803 0.194040 0.338986
1.647000 0.380086 -0.229020 -0.692005
1.648000 0.923386 -0.651190 -1.333333
1.649000 1.333333 -0.875874 -1.333333
1.650000 1.333333 -1.142208 -1.333333
1.651000 1.333333 -1.240258 -1.333333
1.652000 1.333333 -1.158797 -1.333333
1.653000 1.333333 -1.000931 -1.333333
1.654000 1.333333 -0.635238 -1.333333
1.655000 1.102350 -0.312913 -1.333333
1.656000 0.590695 0.095193 -0.419105
1.657000 0.005057 0.556043 0.601831
1.658000 -0.570500 0.924214 1.333333
1.659000 -1.010271 1.239446 1.333333
1.660000 -1.333333 1.333333 1.333333
1.661000 -1.333333 1.333333 1.333333
1.662000 -1.333333 1.333333 1.333333
1.663000 -1.333333 1.314062 1.333333
1.664000 -1.133654 0.973373 1.333333
1.665000 -0.694588 0.591260 1.236603
1.666000 -0.218298 0.180616 0.321448
1.667000 0.385083 -0.253428 -0.711735
1.668000 0.953666 -0.614289 -1.333333
1.669000 1.333333 -0.877258 -1.333333
1.670000 1.333333 -1.100333 -1.333333
1.671000 1.333333 -1.197525 -1.333333
1.672000 1.333333 -1.132986 -1.333333
1.673000 1.333333 -1.045672 -1.333333
1.674000 1.333333 -0.676206 -1.333333
1.675000 1.077971 -0.352170 -1.333333
1.676000 0.564273 0.113190 -0.414113
1.677000 -0.003060 0.533601 0.631398
1.678000 -0.592766 0.914433 1.333333
1.679000 -1.062696 1.178127 1.333333
1.680000 -1.333333 1.333333 1.333333
1.681000 -1.333333 1.333333 1.333333
1.682000 -1.333333 1.333333 1.333333
1.683000 -1.333333 1.260448 1.333333
1.684000 -1.166357 0.947764 1.333333
1.685000 -0.656473 0.606481 1.210092
1.686000 -0.161316 0.220951 0.292686
1.687000 0.409466 -0.256889 -0.724728
1.688000 0.942321 -0.620188 -1.333333
1.689000 1.333333 -0.892016 -1.333333
1.690000 1.333333 -1.104978 -1.333333
1.691000 1.333333 -1.200215 -1.333333
1.692000 1.333333 -1.144957 -1.333333
1.693000 1.333333 -1.034412 -1.333333
1.694000 1.333333 -0.644583 -1.333333
1.695000 1.070073 -0.348118 -1.333333
1.696000 0.550175 0.078012 -0.413921
1.697000 -0.027393 0.519782 0.611967
1.698000 -0.594990 0.921062 1.333333
1.699000 -1.064745 1.179496 1.333333
1.700000 -1.333333 1.333333 1.333333
1.701000 -1.333333 1.333333 1.333333
1.702000 -1.333333 1.333333 1.333333
1.703000 -1.333333 1.291767 1.333333
1.704000 -1.133534 0.940153 1.333333
1.705000 -0.711672 0.546870 1.195628
1.706000 -0.210874 0.149512 0.291543
1.707000 0.418622 -0.263024 -0.760417
1.708000 0.997436 -0.609593 -1.333333
1.709000 1.333333 -0.884811 -1.333333
1.710000 1.333333 -1.134189 -1.333333
1.711000 1.333333 -1.185624 -1.333333
1.712000 1.333333 -1.139415 -1.333333
1.713000 1.333333 -1.005595 -1.333333
1.714000 1.333333 -0.664274 -1.333333
1.715000 1.044686 -0.329264 -1.333333
1.716000 0.496186 0.051730 -0.363475
1.717000 -0.076516 0.501287 0.623245
1.718000 -0.592823 0.904609 1.333333
1.719000 -1.064721 1.191146 1.333333
1.720000 -1.333333 1.333333 1.333333
1.721000 -1.333333 1.333333 1.333333
1.722000 -1.333333 1.333333 1.333333
1.723000 -1.333333 1.246613 1.333333
1.724000 -1.222822 0.884124 1.333333
1.725000 -0.689831 0.584382 1.185890
1.726000 -0.183825 0.178349 0.308582
1.727000 0.397407 -0.289460 -0.769326
1.728000 0.976909 -0.645753 -1.333333
1.729000 1.333333 -0.905598 -1.333333
1.730000 1.333333 -1.137547 -1.333333
1.731000 1.333333 -1.183646 -1.333333
1.732000 1.333333 -1.106961 -1.333333
1.733000 1.333333 -0.991775 -1.333333
1.734000 1.333333 -0.641437 -1.333333
1.735000 1.058253 -0.313173 -1.299798
1.736000 0.501442 0.094367 -0.358301
1.737000 -0.062189 0.524000 0.685852
1.738000 -0.620597 0.968839 1.333333
1.739000 -1.026417 1.249088 1.333333
1.740000 -1.333333 1.333333 1.333333
1.741000 -1.333333 1.333333 1.333333
1.742000 -1.333333 1.333333 1.333333
1.743000 -1.333333 1.275434 1.333333
1.744000 -1.130489 0.946444 1.333333
1.745000 -0.682497 0.560699 1.187939
1.746000 -0.141639 0.213880 0.273936
1.747000 0.421601 -0.260944 -0.728857
1.748000 0.972775 -0.606447 -1.333333
1.749000 1.333333 -0.885709 -1.333333
1.750000 1.333333 -1.130848 -1.333333
1.751000 1.333333 -1.224173 -1.333333
1.752000 1.333333 -1.152997 -1.333333
1.753000 1.333333 -1.018534 -1.333333
1.754000 1.333333 -0.575743 -1.333333
1.755000 1.120537 -0.249409 -1.279691
1.756000 0.533508 0.150375 -0.329445
1.757000 -0.081836 0.565286 0.723454
1.758000 -0.629482 0.989484 1.333333
1.759000 -1.047261 1.251073 1.333333
1.760000 -1.333333 1.333333 1.333333
1.761000 -1.333333 1.333333 1.333333
1.762000 -1.333333 1.333333 1.333333
1.763000 -1.333333 1.276060 1.333333
1.764000 -1.100621 0.962737 1.333333
1.765000 -0.657577 0.542428 1.134146
1.766000 -0.177733 0.144939 0.230343
1.767000 0.430025 -0.292983 -0.769028
1.768000 0.958330 -0.662681 -1.333333
1.769000 1.333333 -0.929606 -1.333333
1.770000 1.333333 -1.147210 -1.333333
1.771000 1.333333 -1.204678 -1.333333
1.772000 1.333333 -1.146355 -1.333333
1.773000 1.333333 -0.973645 -1.333333
1.774000 1.333333 -0.619425 -1.333333
1.775000 1.077038 -0.270403 -1.305789
1.776000 0.542596 0.133315 -0.314473
1.777000 -0.043891 0.570199 0.671067
1.778000 -0.619108 0.935100 1.333333
1.779000 -1.067853 1.229469 1.333333
1.780000 -1.333333 1.333333 1.333333
1.781000 -1.333333 1.333333 1.333333
1.782000 -1.333333 1.333333 1.333333
1.783000 -1.333333 1.308464 1.333333
1.784000 -1.111317 0.935946 1.333333
1.785000 -0.636951 0.570589 1.123253
1.786000 -0.114962 0.178450 0.238943
1.787000 0.460713 -0.278198 -0.806919
1.788000 0.967325 -0.649689 -1.333333
1.789000 1.333333 -0.895880 -1.333333
1.790000 1.333333 -1.148456 -1.333333
1.791000 1.333333 -1.203867 -1.333333
1.792000 1.333333 -1.169278 -1.333333
1.793000 1.333333 -1.005548 -1.333333
1.794000 1.333333 -0.669308 -1.333333
1.795000 1.047274 -0.319750 -1.320305
1.796000 0.559400 0.129269 -0.337582
1.797000 -0.005706 0.601363 0.663226
1.798000 -0.586305 0.966846 1.333333
1.799000 -1.048353 1.251350 1.333333
1.800000 -1.333333 1.333333 1.333333
1.801000 -1.333333 1.333333 1.333333
1.802000 -1.333333 1.333333 1.333333
1.803000 -1.333333 1.282424 1.333333
1.804000 -1.117046 0.894959 1.333333
1.805000 -0.637845 0.553959 1.104466
1.806000 -0.131319 0.157539 0.230390
1.807000 0.463844 -0.264515 -0.788788
1.808000 0.992753 -0.647015 -1.333333
1.809000 1.333333 -0.905262 -1.333333
1.810000 1.333333 -1.192922 -1.333333
1.811000 1.333333 -1.250276 -1.333333
1.812000 1.333333 -1.158359 -1.333333
1.813000 1.333333 -0.973843 -1.333333
1.814000 1.333333 -0.622833 -1.333333
1.815000 1.042345 -0.309574 -1.269848
1.816000 0.513575 0.130999 -0.321149
1.817000 -0.078748 0.541168 0.690700
1.818000 -0.634595 0.948343 1.333333
1.819000 -1.071403 1.228869 1.333333
1.820000 -1.333333 1.333333 1.333333
1.821000 -1.333333 1.333333 1.333333
1.822000 -1.333333 1.333333 1.333333
1.823000 -1.333333 1.253988 1.333333
1.824000 -1.122898 0.919031 1.333333
1.825000 -0.662364 0.501024 1.105425
1.826000 -0.134447 0.159862 0.211036
1.827000 0.460225 -0.315225 -0.809913
1.828000 0.974505 -0.696233 -1.333333
1.829000 1.333333 -0.936657 -1.333333
1.830000 1.333333 -1.155992 -1.333333
1.831000 1.333333 -1.228555 -1.333333
1.832000 1.333333 -1.147711 -1.333333
1.833000 1.333333 -1.030888 -1.333333
1.834000 1.333333 -0.675903 -1.333333
1.835000 1.010733 -0.309491 -1.249194
1.836000 0.475251 0.096036 -0.308249
1.837000 -0.137475 0.508218 0.714036
1.838000 -0.691589 0.920437 1.333333
1.839000 -1.057520 1.225110 1.333333
1.840000 -1.333333 1.333333 1.333333
1.841000 -1.333333 1.333333 1.333333
1.842000 -1.333333 1.333333 1.333333
1.843000 -1.333333 1.256549 1.333333
1.844000 -1.107805 0.918878 1.333333
1.845000 -0.623350 0.514814 1.084920
1.846000 -0.141199 0.115361 0.183825
1.847000 0.446921 -0.337342 -0.828926
1.848000 0.987830 -0.692652 -1.333333
1.849000 1.333333 -0.956487 -1.333333
1.850000 1.333333 -1.187575 -1.333333
1.851000 1.333333 -1.234606 -1.333333
1.852000 1.333333 -1.164040 -1.333333
1.853000 1.333333 -1.019976 -1.333333
1.854000 1.333333 -0.684327 -1.333333
1.855000 0.956913 -0.325940 -1.233583
1.856000 0.451531 0.119332 -0.251412
1.857000 -0.110233 0.571853 0.719577
1.858000 -0.671470 0.949787 1.333333
1.859000 -1.113982 1.221843 1.333333
1.860000 -1.333333 1.333333 1.333333
1.861000 -1.333333 1.333333 1.333333
1.862000 -1.333333 1.333333 1.333333
1.863000 -1.333333 1.239396 1.333333
1.864000 -1.093032 0.905526 1.333333
1.865000 -0.624749 0.508205 1.050725
1.866000 -0.133117 0.078236 0.154508
1.867000 0.452427 -0.349053 -0.871941
1.868000 1.006698 -0.711935 -1.333333
1.869000 1.333333 -0.966693 -1.333333
1.870000 1.333333 -1.192198 -1.333333
1.871000 1.333333 -1.220837 -1.333333
1.872000 1.333333 -1.169407 -1.333333
1.873000 1.333333 -0.995630 -1.333333
1.874000 1.333333 -0.655671 -1.333333
1.875000 1.028549 -0.312589 -1.286185
1.876000 0.476554 0.088597 -0.323354
1.877000 -0.112087 0.526409 0.672792
1.878000 -0.656445 0.921202 1.333333
1.879000 -1.110836 1.207224 1.333333
1.880000 -1.333333 1.333333 1.333333
1.881000 -1.333333 1.333333 1.333333
1.882000 -1.333333 1.333333 1.333333
1.883000 -1.333333 1.295822 1.333333
1.884000 -1.032560 0.940467 1.333333
1.885000 -0.558372 0.569980 1.046226
1.886000 -0.075874 0.135519 0.152204
1.887000 0.565313 -0.247980 -0.869869
1.888000 1.098240 -0.611719 -1.333333
1.889000 1.333333 -0.821153 -1.333333
1.890000 1.333333 -1.030779 -1.333333
1.891000 1.333333 -1.004179 -1.333333
1.892000 1.333333 -0.892584 -1.333333
1.893000 1.333333 -0.706496 -1.333333
1.894000 1.333333 -0.342327 -1.333333
1.895000 1.136875 0.043591 -1.021657
1.896000 0.609222 0.515309 -0.023178
1.897000 0.021558 0.985344 1.014081
1.898000 -0.512530 1.333333 1.333333
1.899000 -0.946961 1.333333 1.333333
1.900000 -1.322134 1.333333 1.333333
1.901000 -1.333333 1.333333 1.333333
1.902000 -1.333333 1.333333 1.333333
1.903000 -1.333333 1.333333 1.333333
1.904000 -0.997359 1.333333 1.333333
1.905000 -0.512967 1.144090 1.333333
1.906000 -0.008154 0.764123 0.689546
1.907000 0.562670 0.304118 -0.304017
1.908000 1.073065 -0.090949 -1.215672
1.909000 1.333333 -0.426301 -1.333333
1.910000 1.333333 -0.744683 -1.333333
1.911000 1.333333 -0.831162 -1.333333
1.912000 1.333333 -0.780425 -1.333333
1.913000 1.333333 -0.758421 -1.333333
1.914000 1.305430 -0.492629 -1.333333
1.915000 0.885061 -0.169703 -0.980316
1.916000 0.347538 0.227774 -0.062737
1.917000 -0.216984 0.594909 0.895447
1.918000 -0.814019 0.960418 1.333333
1.919000 -1.287626 1.146063 1.333333
1.920000 -1.333333 1.333333 1.333333
1.921000 -1.333333 1.333333 1.333333
1.922000 -1.333333 1.279404 1.333333
1.923000 -1.333333 1.086405 1.333333
1.924000 -1.207063 0.715778 1.333333
1.925000 -0.767098 0.289490 1.006322
1.926000 -0.205801 -0.063649 0.049621
1.927000 0.400358 -0.503533 -0.946825
1.928000 0.921647 -0.874579 -1.333333
1.929000 1.327563 -1.153697 -1.333333
1.930000 1.333333 -1.333333 -1.333333
1.931000 1.333333 -1.333333 -1.333333
1.932000 1.333333 -1.305840 -1.333333
1.933000 1.333333 -1.140317 -1.333333
1.934000 1.333333 -0.796428 -1.333333
1.935000 0.952450 -0.399656 -1.285181
1.936000 0.419433 0.054387 -0.305607
1.937000 -0.164313 0.472185 0.698562
1.938000 -0.710376 0.878126 1.333333
1.939000 -1.115407 1.162475 1.333333
1.940000 -1.333333 1.333333 1.333333
1.941000 -1.333333 1.333333 1.333333
1.942000 -1.333333 1.315439 1.333333
1.943000 -1.333333 1.161732 1.333333
1.944000 -1.118388 0.817980 1.333333
1.945000 -0.688988 0.438454 1.051113
1.946000 -0.213036 0.020453 0.153696
1.947000 0.437845 -0.356329 -0.866778
1.948000 0.993505 -0.743159 -1.333333
1.949000 1.333333 -0.986187 -1.333333
1.950000 1.333333 -1.208269 -1.333333
1.951000 1.333333 -1.213412 -1.333333
1.952000 1.333333 -1.163474 -1.333333
1.953000 1.333333 -0.974025 -1.333333
1.954000 1.333333 -0.636144 -1.333333
1.955000 1.003900 -0.242290 -1.191810
1.956000 0.428971 0.155964 -0.182502
1.957000 -0.189702 0.565512 0.790184
1.958000 -0.700245 0.943679 1.333333
1.959000 -1.136788 1.241665 1.333333
1.960000 -1.333333 1.333333 1.333333
1.961000 -1.333333 1.333333 1.333333
1.962000 -1.333333 1.333333 1.333333
1.963000 -1.333333 1.226388 1.333333
1.964000 -1.095709 0.870499 1.333333
1.965000 -0.619671 0.508740 1.036900
1.966000 -0.118335 0.057395 0.092927
1.967000 0.492496 -0.347577 -0.911261
1.968000 1.069442 -0.688347 -1.333333
1.969000 1.333333 -0.920790 -1.333333
1.970000 1.333333 -1.158133 -1.333333
1.971000 1.333333 -1.178765 -1.333333
1.972000 1.333333 -1.142978 -1.333333
1.973000 1.333333 -0.993747 -1.333333
1.974000 1.333333 -0.611929 -1.333333
1.975000 0.969503 -0.246601 -1.142464
1.976000 0.433461 0.203421 -0.161276
1.977000 -0.150545 0.614693 0.846895
1.978000 -0.740829 0.985783 1.333333
1.979000 -1.154573 1.234978 1.333333
1.980000 -1.333333 1.333333 1.333333
1.981000 -1.333333 1.333333 1.333333
1.982000 -1.333333 1.333333 1.333333
1.983000 -1.333333 1.203042 1.333333
1.984000 -1.066285 0.892428 1.333333
1.985000 -0.592121 0.503619 1.028461
1.986000 -0.062835 0.107924 0.070646
1.987000 0.520457 -0.320228 -0.885510
1.988000 1.071337 -0.667229 -1.333333
1.989000 1.333333 -0.946125 -1.333333
1.990000 1.333333 -1.200012 -1.333333
1.991000 1.333333 -1.217652 -1.333333
1.992000 1.333333 -1.117179 -1.333333
1.993000 1.333333 -0.954967 -1.333333
1.994000 1.333333 -0.593306 -1.333333
1.995000 0.973267 -0.253800 -1.132411
1.996000 0.407109 0.193341 -0.159196
1.997000 -0.162855 0.582436 0.836617
1.998000 -0.732161 0.986221 1.333333
1.999000 -1.173949 1.224018 1.333333
2.000000 -1.333333 1.333333 1.333333
2.001000 -1.333333 1.333333 1.333333
2.002000 -1.333333 1.333333 1.333333
2.003000 -1.333333 1.250641 1.333333
2.004000 -1.065419 0.888341 1.333333
2.005000 -0.610274 0.467239 1.009648
2.006000 -0.080403 0.070745 0.067671
2.007000 0.481016 -0.356949 -0.880503
2.008000 1.038864 -0.681502 -1.333333
2.009000 1.333333 -0.951319 -1.333333
2.010000 1.333333 -1.149505 -1.333333
2.011000 1.333333 -1.192549 -1.333333
2.012000 1.333333 -1.132394 -1.333333
2.013000 1.333333 -0.937378 -1.333333
2.014000 1.333333 -0.579783 -1.333333
2.015000 0.997565 -0.192029 -1.130363
2.016000 0.429596 0.200540 -0.126494
2.017000 -0.160573 0.636957 0.852223
2.018000 -0.698717 0.991838 1.333333
2.019000 -1.150216 1.218839 1.333333
2.020000 -1.333333 1.333333 1.333333
2.021000 -1.333333 1.333333 1.333333
2.022000 -1.333333 1.329198 1.333333
2.023000 -1.333333 1.213801 1.333333
2.024000 -1.104308 0.846813 1.333333
2.025000 -0.620802 0.467094 0.988440
2.026000 -0.047133 0.067212 0.049908
2.027000 0.508389 -0.332735 -0.923521
2.028000 1.036893 -0.711335 -1.333333
2.029000 1.333333 -0.932511 -1.333333
2.030000 1.333333 -1.142107 -1.333333
2.031000 1.333333 -1.140131 -1.333333
2.032000 1.333333 -1.092714 -1.333333
2.033000 1.333333 -0.896656 -1.333333
2.034000 1.333333 -0.577354 -1.333333
2.035000 0.979977 -0.204047 -1.123265
2.036000 0.411674 0.192626 -0.107326
2.037000 -0.166786 0.628638 0.855837
2.038000 -0.706966 1.005124 1.333333
2.039000 -1.130130 1.268028 1.333333
2.040000 -1.333333 1.333333 1.333333
2.041000 -1.333333 1.333333 1.333333
2.042000 -1.333333 1.333333 1.333333
2.043000 -1.333333 1.258452 1.333333
2.044000 -1.055172 0.897490 1.333333
2.045000 -0.579507 0.498936 0.982379
2.046000 -0.036589 0.075424 0.049518
2.047000 0.545633 -0.319396 -0.948091
2.048000 1.104978 -0.673265 -1.333333
2.049000 1.333333 -0.910824 -1.333333
2.050000 1.333333 -1.143177 -1.333333
2.051000 1.333333 -1.159966 -1.333333
2.052000 1.333333 -1.106785 -1.333333
2.053000 1.333333 -0.906701 -1.333333
2.054000 1.333333 -0.547880 -1.333333
2.055000 0.993397 -0.180765 -1.088208
2.056000 0.432597 0.232200 -0.132285
2.057000 -0.108224 0.651804 0.855370
2.058000 -0.688299 1.046176 1.333333
2.059000 -1.143381 1.268438 1.333333
2.060000 -1.333333 1.333333 1.333333
2.061000 -1.333333 1.333333 1.333333
2.062000 -1.333333 1.333333 1.333333
2.063000 -1.333333 1.215216 1.333333
2.064000 -1.062956 0.898407 1.333333
2.065000 -0.606008 0.444541 0.985919
2.066000 -0.029975 0.070760 0.008548
2.067000 0.563008 -0.320791 -0.935999
2.068000 1.112268 -0.659487 -1.333333
2.069000 1.333333 -0.911131 -1.333333
2.070000 1.333333 -1.135668 -1.333333
2.071000 1.333333 -1.198902 -1.333333
2.072000 1.333333 -1.086751 -1.333333
2.073000 1.333333 -0.869101 -1.333333
2.074000 1.333333 -0.523756 -1.333333
2.075000 1.004029 -0.171762 -1.081865
2.076000 0.489967 0.302812 -0.110525
2.077000 -0.096116 0.682526 0.872868
2.078000 -0.631425 1.116575 1.333333
2.079000 -1.077521 1.333333 1.333333
2.080000 -1.333333 1.333333 1.333333
2.081000 -1.333333 1.333333 1.333333
2.082000 -1.333333 1.333333 1.333333
2.083000 -1.333333 1.252482 1.333333
2.084000 -0.981786 0.941112 1.333333
2.085000 -0.501204 0.535809 0.963152
2.086000 0.023041 0.118489 0.007399
2.087000 0.591664 -0.304910 -0.957334
2.088000 1.124781 -0.656819 -1.333333
2.089000 1.333333 -0.894116 -1.333333
2.090000 1.333333 -1.107960 -1.333333
2.091000 1.333333 -1.137476 -1.333333
2.092000 1.333333 -1.050398 -1.333333
2.093000 1.333333 -0.817755 -1.333333
2.094000 1.333333 -0.494071 -1.333333
2.095000 1.002375 -0.119659 -1.060457
2.096000 0.417937 0.270735 -0.044829
2.097000 -0.126053 0.707701 0.891735
2.098000 -0.647170 1.102682 1.333333
2.099000 -1.097052 1.333333 1.333333
2.100000 -1.333333 1.333333 1.333333
2.101000 -1.333333 1.333333 1.333333
2.102000 -1.333333 1.333333 1.333333
2.103000 -1.333333 1.315579 1.333333
2.104000 -0.938094 0.959112 1.333333
2.105000 -0.469287 0.532330 0.923887
2.106000 0.112040 0.148294 -0.024104
2.107000 0.668076 -0.241502 -0.993748
2.108000 1.170102 -0.633604 -1.333333
2.109000 1.333333 -0.859109 -1.333333
2.110000 1.333333 -1.113207 -1.333333
2.111000 1.333333 -1.117131 -1.333333
2.112000 1.333333 -1.039181 -1.333333
2.113000 1.333333 -0.781183 -1.333333
2.114000 1.333333 -0.475486 -1.333333
2.115000 1.047692 -0.044396 -1.030477
2.116000 0.487798 0.333027 -0.063784
2.117000 -0.116828 0.739326 0.911646
2.118000 -0.673541 1.113300 1.333333
2.119000 -1.064627 1.333333 1.333333
2.120000 -1.333333 1.333333 1.333333
2.121000 -1.333333 1.333333 1.333333
2.122000 -1.333333 1.333333 1.333333
2.123000 -1.333333 1.306551 1.333333
2.124000 -0.997531 0.950091 1.333333
2.125000 -0.528305 0.539821 0.980504
2.126000 0.068289 0.136426 0.000867
2.127000 0.655704 -0.238482 -0.976928
2.128000 1.170804 -0.605250 -1.333333
2.129000 1.333333 -0.839225 -1.333333
2.130000 1.333333 -1.069723 -1.333333
2.131000 1.333333 -1.082639 -1.333333
2.132000 1.333333 -0.999379 -1.333333
2.133000 1.333333 -0.785242 -1.333333
2.134000 1.333333 -0.473847 -1.333333
2.135000 1.013520 -0.091673 -1.010733
2.136000 0.444497 0.323125 -0.042360
2.137000 -0.161337 0.722744 0.945584
2.138000 -0.685537 1.124738 1.333333
2.139000 -1.084260 1.333333 1.333333
2.140000 -1.333333 1.333333 1.333333
2.141000 -1.333333 1.333333 1.333333
2.142000 -1.333333 1.333333 1.333333
2.143000 -1.328359 1.308649 1.333333
2.144000 -0.972298 0.944319 1.333333
2.145000 -0.505202 0.531874 0.985793
2.146000 0.047535 0.121264 -0.025050
2.147000 0.586652 -0.309455 -0.946378
2.148000 1.096022 -0.651892 -1.333333
2.149000 1.333333 -0.929392 -1.333333
2.150000 1.333333 -1.120898 -1.333333
2.151000 1.333333 -1.136450 -1.333333
2.152000 1.333333 -1.057341 -1.333333
2.153000 1.333333 -0.858956 -1.333333
2.154000 1.333333 -0.526026 -1.333333
2.155000 0.991885 -0.087589 -0.996707
2.156000 0.389664 0.317614 0.000627
2.157000 -0.194332 0.706853 0.977885
2.158000 -0.761132 1.075255 1.333333
2.159000 -1.165097 1.333333 1.333333
2.160000 -1.333333 1.333333 1.333333
2.161000 -1.333333 1.333333 1.333333
2.162000 -1.333333 1.333333 1.333333
2.163000 -1.333333 1.193515 1.333333
2.164000 -1.069654 0.832454 1.333333
2.165000 -0.570285 0.435766 0.940270
2.166000 -0.005462 0.016275 -0.041632
2.167000 0.572306 -0.365075 -0.998017
2.168000 1.090817 -0.717109 -1.333333
2.169000 1.333333 -0.961981 -1.333333
2.170000 1.333333 -1.142386 -1.333333
2.171000 1.333333 -1.168056 -1.333333
2.172000 1.333333 -1.072184 -1.333333
2.173000 1.333333 -0.850597 -1.333333
2.174000 1.333333 -0.546538 -1.333333
2.175000 0.951788 -0.089717 -0.979147
2.176000 0.361357 0.282552 0.016516
2.177000 -0.259280 0.668314 0.977524
2.178000 -0.746565 1.040280 1.333333
2.179000 -1.181853 1.298938 1.333333
2.180000 -1.333333 1.333333 1.333333
2.181000 -1.333333 1.333333 1.333333
2.182000 -1.333333 1.333333 1.333333
2.183000 -1.333333 1.163058 1.333333
2.184000 -1.067534 0.826489 1.333333
2.185000 -0.564961 0.428895 0.899853
2.186000 0.017714 -0.028317 -0.108807
2.187000 0.584802 -0.404001 -1.073828
2.188000 1.081379 -0.780118 -1.333333
2.189000 1.333333 -1.056075 -1.333333
2.190000 1.333333 -1.235011 -1.333333
2.191000 1.333333 -1.202600 -1.333333
2.192000 1.333333 -1.113934 -1.333333
2.193000 1.333333 -0.900172 -1.333333
2.194000 1.333333 -0.595984 -1.333333
2.195000 0.862502 -0.162178 -0.956408
2.196000 0.311373 0.239943 0.005943
2.197000 -0.261471 0.645897 0.948587
2.198000 -0.810930 0.991081 1.333333
2.199000 -1.231860 1.255258 1.333333
2.200000 -1.333333 1.333333 1.333333
2.201000 -1.333333 1.333333 1.333333
2.202000 -1.333333 1.324838 1.333333
2.203000 -1.333333 1.147377 1.333333
2.204000 -1.064768 0.810548 1.333333
2.205000 -0.575662 0.401658 0.888912
2.206000 0.010723 -0.042707 -0.127876
2.207000 0.580212 -0.393236 -1.041059
2.208000 1.069728 -0.781877 -1.333333
2.209000 1.333333 -1.042628 -1.333333
2.210000 1.333333 -1.228817 -1.333333
2.211000 1.333333 -1.247961 -1.333333
2.212000 1.333333 -1.169842 -1.333333
2.213000 1.333333 -0.959092 -1.333333
2.214000 1.329962 -0.584401 -1.333333
2.215000 0.871080 -0.163786 -0.950213
2.216000 0.265284 0.227624 0.014792
2.217000 -0.266590 0.668390 0.993718
2.218000 -0.794827 1.053331 1.333333
2.219000 -1.234282 1.263665 1.333333
2.220000 -1.333333 1.333333 1.333333
2.221000 -1.333333 1.333333 1.333333
2.222000 -1.333333 1.318983 1.333333
2.223000 -1.333333 1.110598 1.333333
2.224000 -1.068179 0.775806 1.333333
2.225000 -0.563023 0.372082 0.872846
2.226000 0.013926 -0.038115 -0.149784
2.227000 0.573743 -0.407651 -1.031114
2.228000 1.056755 -0.769767 -1.333333
2.229000 1.333333 -1.044031 -1.333333
2.230000 1.333333 -1.213730 -1.333333
2.231000 1.333333 -1.259085 -1.333333
2.232000 1.333333 -1.119876 -1.333333
2.233000 1.333333 -0.905276 -1.333333
2.234000 1.332850 -0.569050 -1.333333
2.235000 0.853293 -0.166893 -0.943219
2.236000 0.289250 0.245373 0.014990
2.237000 -0.270274 0.638466 0.995447
2.238000 -0.793105 1.037711 1.333333
2.239000 -1.244585 1.254251 1.333333
2.240000 -1.333333 1.333333 1.333333
2.241000 -1.333333 1.333333 1.333333
2.242000 -1.333333 1.333333 1.333333
2.243000 -1.333333 1.130907 1.333333
2.244000 -1.059300 0.793050 1.333333
2.245000 -0.565042 0.402605 0.889423
2.246000 0.012355 -0.023735 -0.119755
2.247000 0.595518 -0.421390 -1.066431
2.248000 1.117387 -0.776485 -1.333333
2.249000 1.333333 -1.061216 -1.333333
2.250000 1.333333 -1.197690 -1.333333
2.251000 1.333333 -1.228816 -1.333333
2.252000 1.333333 -1.137299 -1.333333
2.253000 1.333333 -0.905537 -1.333333
2.254000 1.333333 -0.563833 -1.333333
2.255000 0.856405 -0.128130 -0.911181
2.256000 0.301737 0.299035 0.069799
2.257000 -0.265949 0.704545 1.043442
2.258000 -0.829300 1.042390 1.333333
2.259000 -1.260943 1.276622 1.333333
2.260000 -1.333333 1.333333 1.333333
2.261000 -1.333333 1.333333 1.333333
2.262000 -1.333333 1.333333 1.333333
2.263000 -1.333333 1.138694 1.333333
2.264000 -1.025042 0.823739 1.333333
2.265000 -0.536700 0.396359 0.835256
2.266000 0.055928 -0.056376 -0.171790
2.267000 0.607903 -0.428434 -1.104792
2.268000 1.097650 -0.785724 -1.333333
2.269000 1.333333 -1.023487 -1.333333
2.270000 1.333333 -1.215638 -1.333333
2.271000 1.333333 -1.237253 -1.333333
2.272000 1.333333 -1.155554 -1.333333
2.273000 1.333333 -0.871526 -1.333333
2.274000 1.331986 -0.586253 -1.333333
2.275000 0.838287 -0.157814 -0.940517
2.276000 0.257503 0.226287 0.064011
2.277000 -0.321377 0.665278 1.039064
2.278000 -0.877983 0.986602 1.333333
2.279000 -1.275333 1.273662 1.333333
2.280000 -1.333333 1.333333 1.333333
2.281000 -1.333333 1.333333 1.333333
2.282000 -1.333333 1.333333 1.333333
2.283000 -1.333333 1.123353 1.333333
2.284000 -1.059706 0.762457 1.333333
2.285000 -0.563650 0.373273 0.855184
2.286000 -0.009877 -0.108365 -0.154303
2.287000 0.516570 -0.494142 -1.091357
2.288000 1.046560 -0.849983 -1.333333
2.289000 1.333333 -1.106232 -1.333333
2.290000 1.333333 -1.231921 -1.333333
2.291000 1.333333 -1.201906 -1.333333
2.292000 1.333333 -1.119085 -1.333333
2.293000 1.333333 -0.900637 -1.333333
2.294000 1.333333 -0.568126 -1.333333
2.295000 0.862483 -0.128028 -0.918059
2.296000 0.320459 0.313810 0.058186
2.297000 -0.270098 0.697220 1.044052
2.298000 -0.840156 1.052603 1.333333
2.299000 -1.274707 1.293622 1.333333
2.300000 -1.333333 1.333333 1.333333
2.301000 -1.333333 1.333333 1.333333
2.302000 -1.333333 1.333333 1.333333
2.303000 -1.333333 1.121255 1.333333
2.304000 -1.021843 0.802112 1.333333
2.305000 -0.502274 0.361263 0.798338
2.306000 0.066126 -0.068120 -0.212586
2.307000 0.563785 -0.483918 -1.093033
2.308000 1.123813 -0.793850 -1.333333
2.309000 1.333333 -1.061535 -1.333333
2.310000 1.333333 -1.187887 -1.333333
2.311000 1.333333 -1.234276 -1.333333
2.312000 1.333333 -1.131447 -1.333333
2.313000 1.333333 -0.910258 -1.333333
2.314000 1.287065 -0.591548 -1.333333
2.315000 0.793062 -0.189558 -0.889832
2.316000 0.244312 0.263404 0.072198
2.317000 -0.311095 0.654421 1.062427
2.318000 -0.878647 1.028114 1.333333
2.319000 -1.263098 1.294674 1.333333
2.320000 -1.333333 1.333333 1.333333
2.321000 -1.333333 1.333333 1.333333
2.322000 -1.333333 1.301122 1.333333
2.323000 -1.333333 1.099043 1.333333
2.324000 -0.985161 0.818766 1.333333
2.325000 -0.483943 0.377320 0.803240
2.326000 0.082561 -0.043044 -0.214940
2.327000 0.665744 -0.406173 -1.120757
2.328000 1.155619 -0.762849 -1.333333
2.329000 1.333333 -1.069608 -1.333333
2.330000 1.333333 -1.204747 -1.333333
2.331000 1.333333 -1.218781 -1.333333
2.332000 1.333333 -1.109629 -1.333333
2.333000 1.333333 -0.858676 -1.333333
2.334000 1.300724 -0.567598 -1.333333
2.335000 0.790337 -0.176989 -0.890865
2.336000 0.242553 0.265179 0.110462
2.337000 -0.342824 0.676917 1.077735
2.338000 -0.875194 1.040685 1.333333
2.339000 -1.305371 1.266566 1.333333
2.340000 -1.333333 1.333333 1.333333
2.341000 -1.333333 1.333333 1.333333
2.342000 -1.333333 1.324194 1.333333
2.343000 -1.333333 1.104608 1.333333
2.344000 -0.997465 0.782984 1.333333
2.345000 -0.509083 0.356224 0.784296
2.346000 0.064445 -0.083344 -0.200154
2.347000 0.606101 -0.462682 -1.146784
2.348000 1.120896 -0.819387 -1.333333
2.349000 1.333333 -1.085435 -1.333333
2.350000 1.333333 -1.192494 -1.333333
2.351000 1.333333 -1.200913 -1.333333
2.352000 1.333333 -1.142100 -1.333333
2.353000 1.333333 -0.849266 -1.333333
2.354000 1.321227 -0.579287 -1.333333
2.355000 0.793453 -0.151754 -0.887563
2.356000 0.245794 0.264012 0.129673
2.357000 -0.352090 0.696712 1.108385
2.358000 -0.891958 1.021462 1.333333
2.359000 -1.317093 1.291868 1.333333
2.360000 -1.333333 1.333333 1.333333
2.361000 -1.333333 1.333333 1.333333
2.362000 -1.333333 1.332857 1.333333
2.363000 -1.333333 1.086837 1.333333
2.364000 -1.043657 0.742646 1.333333
2.365000 -0.520017 0.368602 0.801326
2.366000 0.046927 -0.128641 -0.224258
2.367000 0.595659 -0.490916 -1.179941
2.368000 1.113434 -0.870283 -1.333333
2.369000 1.333333 -1.133947 -1.333333
2.370000 1.333333 -1.253441 -1.333333
2.371000 1.333333 -1.195634 -1.333333
2.372000 1.333333 -1.126358 -1.333333
2.373000 1.333333 -0.865849 -1.333333
2.374000 1.297899 -0.559560 -1.333333
2.375000 0.774268 -0.142061 -0.833696
2.376000 0.230007 0.293273 0.132752
2.377000 -0.356849 0.691977 1.125568
2.378000 -0.883804 1.054890 1.333333
2.379000 -1.319854 1.312288 1.333333
2.380000 -1.333333 1.333333 1.333333
2.381000 -1.333333 1.333333 1.333333
2.382000 -1.333333 1.333333 1.333333
2.383000 -1.333333 1.085599 1.333333
2.384000 -0.981974 0.759266 1.333333
2.385000 -0.468423 0.360464 0.754822
2.386000 0.105518 -0.105231 -0.284829
2.387000 0.679424 -0.467727 -1.216910
2.388000 1.143407 -0.818402 -1.333333
2.389000 1.333333 -1.119653 -1.333333
2.390000 1.333333 -1.270110 -1.333333
2.391000 1.333333 -1.290751 -1.333333
2.392000 1.333333 -1.154580 -1.333333
2.393000 1.333333 -0.908394 -1.333333
2.394000 1.287992 -0.544628 -1.333333
2.395000 0.813097 -0.124412 -0.854561
2.396000 0.228765 0.294780 0.122686
2.397000 -0.337443 0.683761 1.095474
2.398000 -0.925125 1.017352 1.333333
2.399000 -1.314205 1.302456 1.333333
2.400000 -1.333333 1.333333 1.333333
2.401000 -1.333333 1.333333 1.333333
2.402000 -1.333333 1.333333 1.333333
2.403000 -1.333333 1.065306 1.333333
2.404000 -1.002731 0.748248 1.333333
2.405000 -0.536048 0.305124 0.790509
2.406000 0.053357 -0.104930 -0.257501
2.407000 0.619642 -0.500361 -1.184130
2.408000 1.159555 -0.807936 -1.333333
2.409000 1.333333 -1.110295 -1.333333
2.410000 1.333333 -1.230937 -1.333333
2.411000 1.333333 -1.263176 -1.333333
2.412000 1.333333 -1.148518 -1.333333
2.413000 1.333333 -0.868781 -1.333333
2.414000 1.272103 -0.575687 -1.333333
2.415000 0.722256 -0.180402 -0.841995
2.416000 0.160583 0.256714 0.162823
2.417000 -0.402877 0.681496 1.155854
2.418000 -0.923080 1.030831 1.333333
2.419000 -1.332407 1.295301 1.333333
2.420000 -1.333333 1.333333 1.333333
2.421000 -1.333333 1.333333 1.333333
2.422000 -1.333333 1.320571 1.333333
2.423000 -1.333333 1.066348 1.333333
2.424000 -1.034071 0.728385 1.333333
2.425000 -0.486860 0.345226 0.757822
2.426000 0.125301 -0.092430 -0.273103
2.427000 0.654124 -0.503551 -1.221928
2.428000 1.135243 -0.867339 -1.333333
2.429000 1.333333 -1.130116 -1.333333
2.430000 1.333333 -1.252979 -1.333333
2.431000 1.333333 -1.236111 -1.333333
2.432000 1.333333 -1.141233 -1.333333
2.433000 1.333333 -0.858076 -1.333333
2.434000 1.280107 -0.572221 -1.333333
2.435000 0.774664 -0.131239 -0.858444
2.436000 0.191750 0.273268 0.155217
2.437000 -0.407610 0.695864 1.160392
2.438000 -0.912608 1.044776 1.333333
2.439000 -1.333333 1.318653 1.333333
2.440000 -1.333333 1.333333 1.333333
2.441000 -1.333333 1.333333 1.333333
2.442000 -1.333333 1.294236 1.333333
2.443000 -1.333333 1.061080 1.333333
2.444000 -0.962855 0.734834 1.333333
2.445000 -0.477618 0.325627 0.721839
2.446000 0.122707 -0.128388 -0.300219
2.447000 0.680610 -0.487175 -1.251476
2.448000 1.123850 -0.884655 -1.333333
2.449000 1.333333 -1.160236 -1.333333
2.450000 1.333333 -1.280099 -1.333333
2.451000 1.333333 -1.234244 -1.333333
2.452000 1.333333 -1.155946 -1.333333
2.453000 1.333333 -0.864519 -1.333333
2.454000 1.272440 -0.536555 -1.333333
2.455000 0.766940 -0.076598 -0.791321
2.456000 0.200564 0.318016 0.198315
2.457000 -0.345544 0.744144 1.163569
2.458000 -0.869411 1.085290 1.333333
2.459000 -1.333333 1.299005 1.333333
2.460000 -1.333333 1.333333 1.333333
2.461000 -1.333333 1.333333 1.333333
2.462000 -1.333333 1.284468 1.333333
2.463000 -1.333333 1.001606 1.333333
2.464000 -1.026305 0.714791 1.333333
2.465000 -0.523907 0.290139 0.727369
2.466000 0.103557 -0.159459 -0.338999
2.467000 0.704034 -0.497623 -1.275558
2.468000 1.180492 -0.846839 -1.333333
2.469000 1.333333 -1.150900 -1.333333
2.470000 1.333333 -1.264045 -1.333333
2.471000 1.333333 -1.245304 -1.333333
2.472000 1.333333 -1.179156 -1.333333
2.473000 1.333333 -0.843559 -1.333333
2.474000 1.305693 -0.505761 -1.333333
2.475000 0.773291 -0.119889 -0.816969
2.476000 0.199779 0.314373 0.172714
2.477000 -0.380947 0.706295 1.187366
2.478000 -0.900511 1.077413 1.333333
2.479000 -1.333333 1.313629 1.333333
2.480000 -1.333333 1.333333 1.333333
2.481000 -1.333333 1.333333 1.333333
2.482000 -1.333333 1.314892 1.333333
2.483000 -1.333333 1.039717 1.333333
2.484000 -0.957535 0.755921 1.333333
2.485000 -0.450483 0.312571 0.704397
2.486000 0.131322 -0.133392 -0.353901
2.487000 0.683140 -0.542136 -1.255684
2.488000 1.130900 -0.879365 -1.333333
2.489000 1.333333 -1.164719 -1.333333
2.490000 1.333333 -1.249922 -1.333333
2.491000 1.333333 -1.276025 -1.333333
2.492000 1.333333 -1.141281 -1.333333
2.493000 1.333333 -0.850754 -1.333333
2.494000 1.253185 -0.563966 -1.333333
2.495000 0.696483 -0.155279 -0.773711
2.496000 0.128579 0.315270 0.233288
2.497000 -0.414655 0.710640 1.214993
2.498000 -0.940601 1.052024 1.333333
2.499000 -1.333333 1.276775 1.333333
2.500000 -1.333333 1.333333 1.333333
2.501000 -1.333333 1.333333 1.333333
2.502000 -1.333333 1.302380 1.333333
2.503000 -1.333333 1.016496 1.333333
2.504000 -1.006952 0.712345 1.333333
2.505000 -0.479249 0.304658 0.702446
2.506000 0.139930 -0.128692 -0.323966
2.507000 0.663509 -0.525792 -1.238386
2.508000 1.164302 -0.840573 -1.333333
2.509000 1.333333 -1.138354 -1.333333
2.510000 1.333333 -1.232786 -1.333333
2.511000 1.333333 -1.199600 -1.333333
2.512000 1.333333 -1.114908 -1.333333
2.513000 1.333333 -0.784534 -1.333333
2.514000 1.281232 -0.499218 -1.333333
2.515000 0.756049 -0.052193 -0.756681
2.516000 0.166396 0.337092 0.262881
2.517000 -0.464323 0.714217 1.224071
2.518000 -0.993639 1.029851 1.333333
2.519000 -1.333333 1.333333 1.333333
2.520000 -1.333333 1.333333 1.333333
2.521000 -1.333333 1.333333 1.333333
2.522000 -1.333333 1.318933 1.333333
2.523000 -1.333333 1.026336 1.333333
2.524000 -0.997182 0.681272 1.333333
2.525000 -0.482395 0.299031 0.694464
2.526000 0.128931 -0.143440 -0.314489
2.527000 0.707949 -0.479997 -1.260247
2.528000 1.182152 -0.849618 -1.333333
2.529000 1.333333 -1.122616 -1.333333
2.530000 1.333333 -1.263331 -1.333333
2.531000 1.333333 -1.212084 -1.333333
2.532000 1.333333 -1.124647 -1.333333
2.533000 1.333333 -0.796553 -1.333333
2.534000 1.231843 -0.539394 -1.333333
2.535000 0.710206 -0.103129 -0.768059
2.536000 0.160981 0.316534 0.232353
2.537000 -0.433680 0.707045 1.195171
2.538000 -0.891076 1.072914 1.333333
2.539000 -1.297075 1.333333 1.333333
2.540000 -1.333333 1.333333 1.333333
2.541000 -1.333333 1.333333 1.333333
2.542000 -1.333333 1.307635 1.333333
2.543000 -1.333333 0.991227 1.333333
2.544000 -0.985317 0.685959 1.333333
2.545000 -0.457718 0.280077 0.666213
2.546000 0.175312 -0.154526 -0.394302
2.547000 0.710710 -0.565464 -1.329424
2.548000 1.169474 -0.908250 -1.333333
2.549000 1.333333 -1.132771 -1.333333
2.550000 1.333333 -1.205556 -1.333333
2.551000 1.333333 -1.206015 -1.333333
2.552000 1.333333 -1.112787 -1.333333
2.553000 1.333333 -0.826254 -1.333333
2.554000 1.246606 -0.484065 -1.333333
2.555000 0.693149 -0.095265 -0.712349
2.556000 0.136159 0.352327 0.256671
2.557000 -0.433916 0.731626 1.249829
2.558000 -0.962422 1.074037 1.333333
2.559000 -1.333333 1.301672 1.333333
2.560000 -1.333333 1.333333 1.333333
2.561000 -1.333333 1.333333 1.333333
2.562000 -1.333333 1.321997 1.333333
2.563000 -1.325712 0.998365 1.333333
2.564000 -0.966460 0.698193 1.333333
2.565000 -0.434591 0.272512 0.660019
2.566000 0.184323 -0.151896 -0.417114
2.567000 0.766476 -0.546879 -1.333333
2.568000 1.247659 -0.860816 -1.333333
2.569000 1.333333 -1.158239 -1.333333
2.570000 1.333333 -1.235241 -1.333333
2.571000 1.333333 -1.217884 -1.333333
2.572000 1.333333 -1.114263 -1.333333
2.573000 1.333333 -0.814037 -1.333333
2.574000 1.232188 -0.523664 -1.333333
2.575000 0.713947 -0.085552 -0.753883
2.576000 0.145619 0.346700 0.271997
2.577000 -0.408188 0.772649 1.231609
2.578000 -0.918346 1.095278 1.333333
2.579000 -1.333333 1.333333 1.333333
2.580000 -1.333333 1.333333 1.333333
2.581000 -1.333333 1.333333 1.333333
2.582000 -1.333333 1.285625 1.333333
2.583000 -1.289085 1.013441 1.333333
2.584000 -0.954002 0.676994 1.333333
2.585000 -0.456950 0.257577 0.621312
2.586000 0.169405 -0.186848 -0.408608
2.587000 0.728931 -0.567605 -1.333333
2.588000 1.193156 -0.909107 -1.333333
2.589000 1.333333 -1.172610 -1.333333
2.590000 1.333333 -1.278448 -1.333333
2.591000 1.333333 -1.251243 -1.333333
2.592000 1.333333 -1.136000 -1.333333
2.593000 1.333333 -0.810326 -1.333333
2.594000 1.220969 -0.543264 -1.333333
2.595000 0.692942 -0.099379 -0.743908
2.596000 0.107368 0.302293 0.295640
2.597000 -0.462679 0.734204 1.235587
2.598000 -0.948688 1.047085 1.333333
2.599000 -1.333333 1.318441 1.333333
2.600000 -1.333333 1.333333 1.333333
2.601000 -1.333333 1.333333 1.333333
2.602000 -1.333333 1.294609 1.333333
2.603000 -1.316422 0.978645 1.333333
2.604000 -0.908036 0.670282 1.333333
2.605000 -0.424394 0.252401 0.588679
2.606000 0.143152 -0.229295 -0.422550
2.607000 0.712870 -0.605996 -1.333333
2.608000 1.203369 -0.929328 -1.333333
2.609000 1.333333 -1.207856 -1.333333
2.610000 1.333333 -1.328773 -1.333333
2.611000 1.333333 -1.305475 -1.333333
2.612000 1.333333 -1.175533 -1.333333
2.613000 1.333333 -0.841638 -1.333333
2.614000 1.197348 -0.535721 -1.333333
2.615000 0.692375 -0.107653 -0.718458
2.616000 0.123200 0.348316 0.276086
2.617000 -0.468244 0.726897 1.275903
2.618000 -0.966925 1.066380 1.333333
2.619000 -1.333333 1.310782 1.333333
2.620000 -1.333333 1.333333 1.333333
2.621000 -1.333333 1.333333 1.333333
2.622000 -1.333333 1.256016 1.333333
2.623000 -1.333333 0.929805 1.333333
2.624000 -0.972070 0.619729 1.333333
2.625000 -0.428449 0.218095 0.602115
2.626000 0.164707 -0.218021 -0.459454
2.627000 0.729000 -0.615847 -1.333333
2.628000 1.222924 -0.904413 -1.333333
2.629000 1.333333 -1.211451 -1.333333
2.630000 1.333333 -1.285037 -1.333333
2.631000 1.333333 -1.291863 -1.333333
2.632000 1.333333 -1.151044 -1.333333
2.633000 1.333333 -0.835781 -1.333333
2.634000 1.180176 -0.542532 -1.333333
2.635000 0.678170 -0.149567 -0.729508
2.636000 0.090801 0.301923 0.251126
2.637000 -0.458837 0.693016 1.220244
2.638000 -0.956432 1.046469 1.333333
2.639000 -1.333333 1.275693 1.333333
2.640000 -1.333333 1.333333 1.333333
2.641000 -1.333333 1.333333 1.333333
2.642000 -1.333333 1.270811 1.333333
2.643000 -1.257982 0.933371 1.333333
2.644000 -0.882824 0.628667 1.333333
2.645000 -0.389796 0.198460 0.521238
2.646000 0.218852 -0.239032 -0.534572
2.647000 0.771898 -0.611819 -1.333333
2.648000 1.247322 -0.930762 -1.333333
2.649000 1.333333 -1.220074 -1.333333
2.650000 1.333333 -1.308044 -1.333333
2.651000 1.333333 -1.257523 -1.333333
2.652000 1.333333 -1.152844 -1.333333
2.653000 1.333333 -0.829676 -1.333333
2.654000 1.268744 -0.506422 -1.333333
2.655000 0.734111 -0.052533 -0.735482
2.656000 0.159250 0.386519 0.313624
2.657000 -0.403334 0.830578 1.273103
2.658000 -0.926910 1.138414 1.333333
2.659000 -1.325157 1.333333 1.333333
2.660000 -1.333333 1.333333 1.333333
2.661000 -1.333333 1.333333 1.333333
2.662000 -1.333333 1.333333 1.333333
2.663000 -1.148494 1.206617 1.333333
2.664000 -0.786586 0.872177 1.333333
2.665000 -0.310927 0.501322 0.726523
2.666000 0.283148 0.079512 -0.255662
2.667000 0.823560 -0.281158 -1.173877
2.668000 1.314962 -0.568581 -1.333333
2.669000 1.333333 -0.773910 -1.333333
2.670000 1.333333 -0.861823 -1.333333
2.671000 1.333333 -0.788439 -1.333333
2.672000 1.333333 -0.655983 -1.333333
2.673000 1.333333 -0.287366 -1.333333
2.674000 1.332709 0.016640 -1.241460
2.675000 0.776400 0.483480 -0.237707
2.676000 0.183112 0.939933 0.828490
2.677000 -0.404934 1.333333 1.333333
2.678000 -0.915770 1.333333 1.333333
2.679000 -1.333333 1.333333 1.333333
2.680000 -1.333333 1.333333 1.333333
2.681000 -1.333333 1.333333 1.333333
2.682000 -1.333333 1.333333 1.333333
2.683000 -1.327475 1.283893 1.333333
2.684000 -1.008554 0.873877 1.333333
2.685000 -0.505149 0.368123 0.811428
2.686000 0.122336 -0.089126 -0.285870
2.687000 0.644611 -0.524949 -1.217294
2.688000 1.106022 -0.880428 -1.333333
2.689000 1.333333 -1.205953 -1.333333
2.690000 1.333333 -1.315930 -1.333333
2.691000 1.333333 -1.315922 -1.333333
2.692000 1.333333 -1.234088 -1.333333
2.693000 1.333333 -0.934965 -1.333333
2.694000 1.067835 -0.619996 -1.333333
2.695000 0.526523 -0.235242 -0.684630
2.696000 -0.033551 0.184094 0.270253
2.697000 -0.573004 0.569317 1.217685
2.698000 -1.076669 0.878619 1.333333
2.699000 -1.333333 1.109920 1.333333
2.700000 -1.333333 1.193913 1.333333
2.701000 -1.333333 1.134304 1.333333
2.702000 -1.333333 1.057112 1.333333
2.703000 -1.331307 0.766879 1.333333
2.704000 -0.938719 0.458733 1.333333
2.705000 -0.454955 0.026189 0.432176
2.706000 0.158265 -0.370758 -0.599710
2.707000 0.749885 -0.739967 -1.333333
2.708000 1.210593 -1.062756 -1.333333
2.709000 1.333333 -1.333333 -1.333333
2.710000 1.333333 -1.333333 -1.333333
2.711000 1.333333 -1.333333 -1.333333
2.712000 1.333333 -1.222558 -1.333333
2.713000 1.333333 -0.882378 -1.333333
2.714000 1.149327 -0.569963 -1.333333
2.715000 0.615773 -0.159675 -0.706744
2.716000 0.068411 0.305618 0.315782
2.717000 -0.504266 0.687070 1.270260
2.718000 -0.972286 1.033359 1.333333
2.719000 -1.333333 1.282087 1.333333
2.720000 -1.333333 1.333333 1.333333
2.721000 -1.333333 1.333333 1.333333
2.722000 -1.333333 1.220462 1.333333
2.723000 -1.253579 0.924874 1.333333
2.724000 -0.854523 0.625876 1.333333
2.725000 -0.343197 0.202424 0.468813
2.726000 0.227126 -0.260511 -0.553121
2.727000 0.781255 -0.624516 -1.333333
2.728000 1.268734 -0.930568 -1.333333
2.729000 1.333333 -1.191254 -1.333333
2.730000 1.333333 -1.269686 -1.333333
2.731000 1.333333 -1.251801 -1.333333
2.732000 1.333333 -1.162153 -1.333333
2.733000 1.333333 -0.805031 -1.333333
2.734000 1.202603 -0.499826 -1.333333
2.735000 0.662874 -0.063964 -0.685135
2.736000 0.120342 0.376963 0.339437
2.737000 -0.421875 0.776952 1.255859
2.738000 -0.916618 1.054422 1.333333
2.739000 -1.333333 1.309366 1.333333
2.740000 -1.333333 1.333333 1.333333
2.741000 -1.333333 1.333333 1.333333
2.742000 -1.333333 1.246669 1.333333
2.743000 -1.252712 0.929472 1.333333
2.744000 -0.886726 0.588647 1.333333
2.745000 -0.384269 0.177556 0.474295
2.746000 0.183807 -0.306022 -0.550792
2.747000 0.755302 -0.663300 -1.333333
2.748000 1.255177 -0.983819 -1.333333
2.749000 1.333333 -1.191901 -1.333333
2.750000 1.333333 -1.283602 -1.333333
2.751000 1.333333 -1.250293 -1.333333
2.752000 1.333333 -1.134426 -1.333333
2.753000 1.333333 -0.797453 -1.333333
2.754000 1.150253 -0.520871 -1.333333
2.755000 0.599583 -0.096613 -0.626774
2.756000 0.058935 0.380018 0.385801
2.757000 -0.465929 0.776316 1.315542
2.758000 -0.943467 1.092998 1.333333
2.759000 -1.333333 1.333333 1.333333
2.760000 -1.333333 1.333333 1.333333
2.761000 -1.333333 1.333333 1.333333
2.762000 -1.333333 1.238550 1.333333
2.763000 -1.258880 0.898001 1.333333
2.764000 -0.913305 0.590533 1.333333
2.765000 -0.391696 0.163247 0.481614
2.766000 0.236222 -0.233920 -0.536425
2.767000 0.792184 -0.617729 -1.333333
2.768000 1.251790 -0.957793 -1.333333
2.769000 1.333333 -1.227828 -1.333333
2.770000 1.333333 -1.260052 -1.333333
2.771000 1.333333 -1.234196 -1.333333
2.772000 1.333333 -1.113621 -1.333333
2.773000 1.333333 -0.821886 -1.333333
2.774000 1.162150 -0.477453 -1.333333
2.775000 0.639228 -0.070651 -0.638715
2.776000 0.075759 0.400590 0.383065
2.777000 -0.484639 0.793004 1.333333
2.778000 -1.006595 1.090588 1.333333
2.779000 -1.333333 1.328827 1.333333
2.780000 -1.333333 1.333333 1.333333
2.781000 -1.333333 1.333333 1.333333
2.782000 -1.333333 1.292365 1.333333
2.783000 -1.254036 0.934892 1.333333
2.784000 -0.836607 0.642145 1.333333
2.785000 -0.338462 0.195097 0.482605
2.786000 0.246607 -0.241986 -0.562004
2.787000 0.766626 -0.663062 -1.333333
2.788000 1.265929 -0.936574 -1.333333
2.789000 1.333333 -1.192423 -1.333333
2.790000 1.333333 -1.258774 -1.333333
2.791000 1.333333 -1.233759 -1.333333
2.792000 1.333333 -1.115939 -1.333333
2.793000 1.333333 -0.787938 -1.333333
2.794000 1.138704 -0.468851 -1.333333
2.795000 0.615930 -0.062664 -0.621295
2.796000 0.049261 0.374793 0.400880
2.797000 -0.520688 0.762721 1.333333
2.798000 -0.991591 1.092298 1.333333
2.799000 -1.333333 1.333333 1.333333
2.800000 -1.333333 1.333333 1.333333
2.801000 -1.333333 1.333333 1.333333
2.802000 -1.333333 1.241611 1.333333
2.803000 -1.229656 0.940859 1.333333
2.804000 -0.846832 0.601734 1.333333
2.805000 -0.368042 0.167287 0.459800
2.806000 0.245128 -0.271650 -0.550137
2.807000 0.785194 -0.624942 -1.333333
2.808000 1.268779 -0.926610 -1.333333
2.809000 1.333333 -1.193213 -1.333333
2.810000 1.333333 -1.286190 -1.333333
2.811000 1.333333 -1.248177 -1.333333
2.812000 1.333333 -1.117576 -1.333333
2.813000 1.333333 -0.712432 -1.333333
2.814000 1.168075 -0.436615 -1.333333
2.815000 0.593515 -0.044126 -0.595304
2.816000 0.048107 0.407963 0.433008
2.817000 -0.497276 0.817586 1.333333
2.818000 -0.994264 1.105343 1.333333
2.819000 -1.333333 1.333333 1.333333
2.820000 -1.333333 1.333333 1.333333
2.821000 -1.333333 1.333333 1.333333
2.822000 -1.333333 1.278336 1.333333
2.823000 -1.189737 0.978961 1.333333
2.824000 -0.832969 0.607075 1.333333
2.825000 -0.313343 0.197177 0.442445
2.826000 0.257128 -0.276935 -0.570057
2.827000 0.821078 -0.614553 -1.333333
2.828000 1.321454 -0.911725 -1.333333
2.829000 1.333333 -1.152352 -1.333333
2.830000 1.333333 -1.274233 -1.333333
2.831000 1.333333 -1.222387 -1.333333
2.832000 1.333333 -1.094512 -1.333333
2.833000 1.333333 -0.736254 -1.333333
2.834000 1.160511 -0.425482 -1.333333
2.835000 0.641044 -0.039231 -0.615467
2.836000 0.050778 0.389443 0.399949
2.837000 -0.521789 0.780159 1.333333
2.838000 -0.989271 1.104471 1.333333
2.839000 -1.333333 1.333333 1.333333
2.840000 -1.333333 1.333333 1.333333
2.841000 -1.333333 1.333333 1.333333
2.842000 -1.333333 1.333333 1.333333
2.843000 -1.166971 0.986549 1.333333
2.844000 -0.776025 0.673712 1.333333
2.845000 -0.250253 0.237635 0.422298
2.846000 0.348974 -0.189489 -0.599728
2.847000 0.902513 -0.553858 -1.333333
2.848000 1.333333 -0.864502 -1.333333
2.849000 1.333333 -1.138118 -1.333333
2.850000 1.333333 -1.192007 -1.333333
2.851000 1.333333 -1.146111 -1.333333
2.852000 1.333333 -1.003068 -1.333333
2.853000 1.333333 -0.671589 -1.333333
2.854000 1.237957 -0.354183 -1.333333
2.855000 0.706846 0.048358 -0.580654
2.856000 0.138812 0.507985 0.424273
2.857000 -0.417580 0.895061 1.333333
2.858000 -0.900181 1.226539 1.333333
2.859000 -1.319744 1.333333 1.333333
2.860000 -1.333333 1.333333 1.333333
2.861000 -1.333333 1.333333 1.333333
2.862000 -1.333333 1.333333 1.333333
2.863000 -1.125991 1.008329 1.333333
2.864000 -0.751829 0.690249 1.333333
2.865000 -0.212078 0.260736 0.421129
2.866000 0.370766 -0.160094 -0.594983
2.867000 0.903812 -0.554693 -1.333333
2.868000 1.333333 -0.818276 -1.333333
2.869000 1.333333 -1.080627 -1.333333
2.870000 1.333333 -1.125033 -1.333333
2.871000 1.333333 -1.077527 -1.333333
2.872000 1.333333 -0.956591 -1.333333
2.873000 1.333333 -0.624785 -1.333333
2.874000 1.196766 -0.344344 -1.333333
2.875000 0.681398 0.091681 -0.524593
2.876000 0.087296 0.514347 0.496767
2.877000 -0.461370 0.905365 1.333333
2.878000 -0.910501 1.209672 1.333333
2.879000 -1.332871 1.333333 1.333333
2.880000 -1.333333 1.333333 1.333333
2.881000 -1.333333 1.333333 1.333333
2.882000 -1.333333 1.333333 1.333333
2.883000 -1.113043 1.018775 1.333333
2.884000 -0.737540 0.675212 1.333333
2.885000 -0.192341 0.287302 0.399412
2.886000 0.406363 -0.129648 -0.588127
2.887000 0.916248 -0.501011 -1.333333
2.888000 1.333333 -0.833254 -1.333333
2.889000 1.333333 -1.071413 -1.333333
2.890000 1.333333 -1.152687 -1.333333
2.891000 1.333333 -1.098547 -1.333333
2.892000 1.333333 -0.981822 -1.333333
2.893000 1.333333 -0.624463 -1.333333
2.894000 1.189603 -0.343266 -1.333333
2.895000 0.676917 0.091142 -0.519303
2.896000 0.074558 0.499078 0.512773
2.897000 -0.458154 0.943598 1.333333
2.898000 -0.920292 1.226976 1.333333
2.899000 -1.333333 1.333333 1.333333
2.900000 -1.333333 1.333333 1.333333
2.901000 -1.333333 1.333333 1.333333
2.902000 -1.333333 1.333333 1.333333
2.903000 -1.113059 1.055873 1.333333
2.904000 -0.730141 0.708825 1.333333
2.905000 -0.225151 0.277036 0.419684
2.906000 0.325933 -0.194277 -0.580868
2.907000 0.877996 -0.535966 -1.333333
2.908000 1.333333 -0.848557 -1.333333
2.909000 1.333333 -1.110175 -1.333333
2.910000 1.333333 -1.192136 -1.333333
2.911000 1.333333 -1.123107 -1.333333
2.912000 1.333333 -0.981388 -1.333333
2.913000 1.333333 -0.631031 -1.333333
2.914000 1.168713 -0.314675 -1.333333
2.915000 0.628154 0.089645 -0.459366
2.916000 0.047326 0.539492 0.539128
2.917000 -0.502755 0.917527 1.333333
2.918000 -0.976067 1.212137 1.333333
2.919000 -1.333333 1.333333 1.333333
2.920000 -1.333333 1.333333 1.333333
2.921000 -1.333333 1.333333 1.333333
2.922000 -1.333333 1.333333 1.333333
2.923000 -1.177155 0.964243 1.333333
2.924000 -0.776770 0.647308 1.326492
2.925000 -0.252607 0.206983 0.406889
2.926000 0.328070 -0.178875 -0.600025
2.927000 0.856188 -0.569651 -1.333333
2.928000 1.306423 -0.858068 -1.333333
2.929000 1.333333 -1.115834 -1.333333
2.930000 1.333333 -1.161918 -1.333333
2.931000 1.333333 -1.153412 -1.333333
2.932000 1.333333 -1.013237 -1.333333
2.933000 1.333333 -0.692136 -1.333333
2.934000 1.132559 -0.320353 -1.333333
2.935000 0.641936 0.075486 -0.492828
2.936000 0.035738 0.519133 0.514019
2.937000 -0.513379 0.891843 1.333333
2.938000 -1.010277 1.181012 1.333333
2.939000 -1.333333 1.333333 1.333333
2.940000 -1.333333 1.333333 1.333333
2.941000 -1.333333 1.333333 1.333333
2.942000 -1.333333 1.303473 1.333333
2.943000 -1.198535 0.968024 1.333333
2.944000 -0.782561 0.667598 1.333333
2.945000 -0.256285 0.220947 0.422355
2.946000 0.299783 -0.214425 -0.594280
2.947000 0.851356 -0.598684 -1.333333
2.948000 1.302211 -0.917539 -1.333333
2.949000 1.333333 -1.178736 -1.333333
2.950000 1.333333 -1.231520 -1.333333
2.951000 1.333333 -1.185282 -1.333333
2.952000 1.333333 -1.063062 -1.333333
2.953000 1.333333 -0.694296 -1.333333
2.954000 1.075147 -0.414285 -1.333333
2.955000 0.538827 0.013610 -0.478672
2.956000 -0.039246 0.438812 0.554499
2.957000 -0.591036 0.849067 1.333333
2.958000 -1.037203 1.128529 1.333333
2.959000 -1.333333 1.333333 1.333333
2.960000 -1.333333 1.333333 1.333333
2.961000 -1.333333 1.333333 1.333333
2.962000 -1.333333 1.267077 1.333333
2.963000 -1.216249 0.907908 1.333333
2.964000 -0.805427 0.585926 1.333333
2.965000 -0.291178 0.172800 0.372356
2.966000 0.304004 -0.274471 -0.611010
2.967000 0.858882 -0.631772 -1.333333
2.968000 1.299789 -0.964934 -1.333333
2.969000 1.333333 -1.217004 -1.333333
2.970000 1.333333 -1.301411 -1.333333
2.971000 1.333333 -1.219262 -1.333333
2.972000 1.333333 -1.105751 -1.333333
2.973000 1.333333 -0.735000 -1.333333
2.974000 1.048367 -0.439506 -1.333333
2.975000 0.545220 -0.007301 -0.493893
2.976000 -0.010698 0.440309 0.528656
2.977000 -0.599890 0.843715 1.333333
2.978000 -1.058040 1.134183 1.333333
2.979000 -1.333333 1.333333 1.333333
2.980000 -1.333333 1.333333 1.333333
2.981000 -1.333333 1.333333 1.333333
2.982000 -1.333333 1.226371 1.333333
2.983000 -1.190843 0.888905 1.333333
2.984000 -0.793760 0.566561 1.304260
2.985000 -0.272222 0.140075 0.349804
2.986000 0.304597 -0.287578 -0.672379
2.987000 0.868641 -0.659935 -1.333333
2.988000 1.331409 -0.973407 -1.333333
2.989000 1.333333 -1.222409 -1.333333
2.990000 1.333333 -1.277028 -1.333333
2.991000 1.333333 -1.230050 -1.333333
2.992000 1.333333 -1.083736 -1.333333
2.993000 1.333333 -0.748891 -1.333333
2.994000 1.105487 -0.402523 -1.333333
2.995000 0.547171 -0.027424 -0.489325
2.996000 -0.051387 0.428666 0.522713
2.997000 -0.589169 0.803098 1.333333
2.998000 -1.029311 1.140531 1.333333
2.999000 -1.333333 1.333333 1.333333
3.000000 -1.333333 1.333333 1.333333
3.001000 -1.333333 1.317240 1.333333
3.002000 -1.333333 1.221071 1.333333
3.003000 -1.187058 0.882867 1.333333
3.004000 -0.780743 0.575940 1.279047
3.005000 -0.266207 0.108750 0.325384
3.006000 0.336579 -0.282989 -0.700807
3.007000 0.884099 -0.665791 -1.333333
3.008000 1.333333 -0.939286 -1.333333
3.009000 1.333333 -1.219211 -1.333333
3.010000 1.333333 -1.251707 -1.333333
3.011000 1.333333 -1.170118 -1.333333
3.012000 1.333333 -1.083181 -1.333333
3.013000 1.333333 -0.812094 -1.333333
3.014000 0.987147 -0.487773 -1.333333
3.015000 0.518083 -0.015243 -0.481668
3.016000 -0.045628 0.451383 0.557917
3.017000 -0.616109 0.814436 1.333333
3.018000 -1.062554 1.101697 1.333333
3.019000 -1.333333 1.333333 1.333333
3.020000 -1.333333 1.333333 1.333333
3.021000 -1.333333 1.333333 1.333333
3.022000 -1.333333 1.224943 1.333333
3.023000 -1.189521 0.853812 1.333333
3.024000 -0.800613 0.511484 1.262534
3.025000 -0.293662 0.082773 0.294753
3.026000 0.323462 -0.320265 -0.697786
3.027000 0.851576 -0.673442 -1.333333
3.028000 1.330777 -0.945674 -1.333333
3.029000 1.333333 -1.173973 -1.333333
3.030000 1.333333 -1.278405 -1.333333
3.031000 1.333333 -1.187310 -1.333333
3.032000 1.333333 -1.064752 -1.333333
3.033000 1.333333 -0.695132 -1.333333
3.034000 1.058868 -0.406220 -1.333333
3.035000 0.515164 0.016021 -0.454540
3.036000 -0.063424 0.429374 0.599373
3.037000 -0.626839 0.820418 1.333333
3.038000 -1.084342 1.086955 1.333333
3.039000 -1.333333 1.333333 1.333333
3.040000 -1.333333 1.333333 1.333333
3.041000 -1.333333 1.333333 1.333333
3.042000 -1.333333 1.193197 1.333333
3.043000 -1.181920 0.884970 1.333333
3.044000 -0.783616 0.527098 1.271797
3.045000 -0.251758 0.135921 0.296086
3.046000 0.323059 -0.325714 -0.700007
3.047000 0.857719 -0.680447 -1.333333
3.048000 1.320638 -1.002205 -1.333333
3.049000 1.333333 -1.218591 -1.333333
3.050000 1.333333 -1.276042 -1.333333
3.051000 1.333333 -1.180097 -1.333333
3.052000 1.333333 -1.044406 -1.333333
3.053000 1.333333 -0.715961 -1.333333
3.054000 1.004433 -0.409549 -1.333333
3.055000 0.483909 -0.003100 -0.412537
3.056000 -0.067406 0.466684 0.599579
3.057000 -0.620473 0.849236 1.333333
3.058000 -1.055326 1.138221 1.333333
3.059000 -1.333333 1.333333 1.333333
3.060000 -1.333333 1.333333 1.333333
3.061000 -1.333333 1.333333 1.333333
3.062000 -1.333333 1.220898 1.333333
3.063000 -1.160248 0.885724 1.333333
3.064000 -0.760120 0.568339 1.257540
3.065000 -0.229385 0.132332 0.300215
3.066000 0.349593 -0.299044 -0.721048
3.067000 0.886464 -0.688393 -1.333333
3.068000 1.319378 -1.019837 -1.333333
3.069000 1.333333 -1.271709 -1.333333
3.070000 1.333333 -1.295456 -1.333333
3.071000 1.333333 -1.217180 -1.333333
3.072000 1.333333 -1.075418 -1.333333
3.073000 1.333333 -0.727761 -1.333333
3.074000 1.029384 -0.396673 -1.333333
3.075000 0.514504 0.005836 -0.415517
3.076000 -0.093008 0.459237 0.595861
3.077000 -0.621947 0.846368 1.333333
3.078000 -1.065280 1.150372 1.333333
3.079000 -1.333333 1.333333 1.333333
3.080000 -1.333333 1.333333 1.333333
3.081000 -1.333333 1.333333 1.333333
3.082000 -1.333333 1.241783 1.333333
3.083000 -1.148415 0.854304 1.333333
3.084000 -0.754596 0.547462 1.233933
3.085000 -0.259882 0.083858 0.270464
3.086000 0.303855 -0.351295 -0.724259
3.087000 0.852885 -0.720838 -1.333333
3.088000 1.314128 -0.989854 -1.333333
3.089000 1.333333 -1.183430 -1.333333
3.090000 1.333333 -1.276232 -1.333333
3.091000 1.333333 -1.221989 -1.333333
3.092000 1.333333 -1.130767 -1.333333
3.093000 1.333333 -0.743759 -1.333333
3.094000 1.038354 -0.380105 -1.333333
3.095000 0.510367 0.026848 -0.429209
3.096000 -0.073956 0.457039 0.620375
3.097000 -0.624762 0.861498 1.333333
3.098000 -1.087597 1.123824 1.333333
3.099000 -1.333333 1.328584 1.333333
3.100000 -1.333333 1.333333 1.333333
3.101000 -1.333333 1.333333 1.333333
3.102000 -1.333333 1.204496 1.333333
3.103000 -1.145583 0.867886 1.333333
3.104000 -0.718080 0.535798 1.199524
3.105000 -0.190817 0.144770 0.243870
3.106000 0.388810 -0.292087 -0.736614
3.107000 0.918821 -0.657521 -1.333333
3.108000 1.333333 -0.977724 -1.333333
3.109000 1.333333 -1.218937 -1.333333
3.110000 1.333333 -1.316136 -1.333333
3.111000 1.333333 -1.211034 -1.333333
3.112000 1.333333 -1.090778 -1.333333
3.113000 1.333333 -0.711272 -1.333333
3.114000 1.015424 -0.374486 -1.320444
3.115000 0.511150 0.047576 -0.406345
3.116000 -0.063610 0.476874 0.614102
3.117000 -0.605777 0.857276 1.333333
3.118000 -1.102724 1.105655 1.333333
3.119000 -1.333333 1.333333 1.333333
3.120000 -1.333333 1.333333 1.333333
3.121000 -1.333333 1.325994 1.333333
3.122000 -1.333333 1.184261 1.333333
3.123000 -1.144508 0.866314 1.333333
3.124000 -0.753026 0.508503 1.188855
3.125000 -0.195417 0.096964 0.217815
3.126000 0.403020 -0.342102 -0.795517
3.127000 0.938314 -0.715513 -1.333333
3.128000 1.333333 -1.015408 -1.333333
3.129000 1.333333 -1.227874 -1.333333
3.130000 1.333333 -1.288225 -1.333333
3.131000 1.333333 -1.212442 -1.333333
3.132000 1.333333 -1.062550 -1.333333
3.133000 1.333333 -0.714472 -1.333333
3.134000 1.012475 -0.355713 -1.312979
3.135000 0.508964 0.059134 -0.357423
3.136000 -0.086231 0.509663 0.636363
3.137000 -0.641268 0.854344 1.333333
3.138000 -1.077777 1.147109 1.333333
3.139000 -1.333333 1.333333 1.333333
3.140000 -1.333333 1.333333 1.333333
3.141000 -1.333333 1.333333 1.333333
3.142000 -1.333333 1.196305 1.333333
3.143000 -1.169162 0.829981 1.333333
3.144000 -0.751378 0.500003 1.171946
3.145000 -0.234935 0.058798 0.239729
3.146000 0.348994 -0.358747 -0.768269
3.147000 0.862875 -0.759211 -1.333333
3.148000 1.324337 -1.012838 -1.333333
3.149000 1.333333 -1.263405 -1.333333
3.150000 1.333333 -1.284127 -1.333333
3.151000 1.333333 -1.235610 -1.333333
3.152000 1.333333 -1.071792 -1.333333
3.153000 1.333333 -0.697432 -1.333333
3.154000 1.011505 -0.358443 -1.303371
3.155000 0.469274 0.038522 -0.349908
3.156000 -0.088272 0.503164 0.652715
3.157000 -0.649154 0.859001 1.333333
3.158000 -1.122330 1.099568 1.333333
3.159000 -1.333333 1.295319 1.333333
3.160000 -1.333333 1.333333 1.333333
3.161000 -1.333333 1.333333 1.333333
3.162000 -1.333333 1.185954 1.333333
3.163000 -1.186263 0.816818 1.333333
3.164000 -0.755676 0.486657 1.179496
3.165000 -0.206923 0.056685 0.207553
3.166000 0.357725 -0.362469 -0.779473
3.167000 0.863044 -0.749160 -1.333333
3.168000 1.324791 -1.010247 -1.333333
3.169000 1.333333 -1.227449 -1.333333
3.170000 1.333333 -1.329311 -1.333333
3.171000 1.333333 -1.232909 -1.333333
3.172000 1.333333 -1.070421 -1.333333
3.173000 1.333333 -0.716928 -1.333333
3.174000 0.967912 -0.374294 -1.256217
3.175000 0.430206 0.067643 -0.313226
3.176000 -0.130185 0.502026 0.698385
3.177000 -0.665502 0.869964 1.333333
3.178000 -1.105697 1.106591 1.333333
3.179000 -1.333333 1.333333 1.333333
3.180000 -1.333333 1.333333 1.333333
3.181000 -1.333333 1.311494 1.333333
3.182000 -1.333333 1.132063 1.333333
3.183000 -1.222872 0.809218 1.333333
3.184000 -0.799636 0.449224 1.198520
3.185000 -0.269935 0.044831 0.226516
3.186000 0.319035 -0.392183 -0.747995
3.187000 0.833210 -0.773274 -1.333333
3.188000 1.271659 -1.074468 -1.333333
3.189000 1.333333 -1.270951 -1.333333
3.190000 1.333333 -1.314421 -1.333333
3.191000 1.333333 -1.193557 -1.333333
3.192000 1.333333 -1.033178 -1.333333
3.193000 1.333333 -0.710409 -1.333333
3.194000 0.937773 -0.406917 -1.266825
3.195000 0.417375 0.025709 -0.318230
3.196000 -0.159877 0.457451 0.662933
3.197000 -0.713656 0.839809 1.333333
3.198000 -1.136223 1.113953 1.333333
3.199000 -1.333333 1.333333 1.333333
3.200000 -1.333333 1.333333 1.333333
3.201000 -1.333333 1.305544 1.333333
3.202000 -1.333333 1.166788 1.333333
3.203000 -1.189535 0.812978 1.333333
3.204000 -0.778597 0.483977 1.183388
3.205000 -0.245525 0.052721 0.234566
3.206000 0.309565 -0.392088 -0.755304
