0.000000 0.211381 -0.660845 -0.946278
0.001000 0.681296 -1.130731 -1.333333
0.002000 1.065593 -1.333333 -1.333333
0.003000 1.333333 -1.333333 -1.333333
0.004000 1.333333 -1.333333 -1.333333
0.005000 1.333333 -1.333333 -1.333333
0.006000 1.223907 -1.333333 -1.333333
0.007000 0.915999 -1.319507 -1.333333
0.008000 0.603848 -0.927037 -1.333333
0.009000 0.121841 -0.430322 -0.519306
0.010000 -0.357920 0.130836 0.538230
0.011000 -0.771450 0.616152 1.333333
0.012000 -1.111162 1.038168 1.333333
0.013000 -1.333333 1.320396 1.333333
0.014000 -1.333333 1.333333 1.333333
0.015000 -1.333333 1.333333 1.333333
0.016000 -1.333333 1.251704 1.333333
0.017000 -1.069684 0.812402 1.333333
0.018000 -0.685341 0.407176 1.038672
0.019000 -0.280201 -0.072849 0.133404
0.020000 0.230439 -0.633934 -0.909297
0.021000 0.605301 -1.147834 -1.333333
0.022000 1.019479 -1.333333 -1.333333
0.023000 1.333333 -1.333333 -1.333333
0.024000 1.333333 -1.333333 -1.333333
0.025000 1.333333 -1.333333 -1.333333
0.026000 1.280752 -1.333333 -1.333333
0.027000 0.918043 -1.315459 -1.333333
0.028000 0.535803 -0.905885 -1.333333
0.029000 0.134271 -0.396955 -0.460691
0.030000 -0.358773 0.148920 0.585036
0.031000 -0.817032 0.636898 1.333333
0.032000 -1.147375 1.026768 1.333333
0.033000 -1.333333 1.333333 1.333333
0.034000 -1.333333 1.333333 1.333333
0.035000 -1.333333 1.333333 1.333333
0.036000 -1.333333 1.240840 1.333333
0.037000 -1.001589 0.833283 1.333333
0.038000 -0.637798 0.469760 1.025123
0.039000 -0.208845 -0.041948 0.135342
0.040000 0.304756 -0.569803 -0.946690
0.041000 0.748160 -1.078622 -1.333333
0.042000 1.044297 -1.333333 -1.333333
0.043000 1.285088 -1.333333 -1.333333
0.044000 1.333333 -1.333333 -1.333333
0.045000 1.333333 -1.333333 -1.333333
0.046000 1.285930 -1.333333 -1.333333
0.047000 0.873549 -1.333333 -1.333333
0.048000 0.519282 -0.917396 -1.333333
0.049000 0.135998 -0.367887 -0.448353
0.050000 -0.347881 0.184192 0.578422
0.051000 -0.749678 0.685926 1.333333
0.052000 -1.121438 1.094215 1.333333
0.053000 -1.333333 1.333333 1.333333
0.054000 -1.333333 1.333333 1.333333
0.055000 -1.333333 1.333333 1.333333
0.056000 -1.333333 1.252438 1.333333
0.057000 -0.998347 0.825572 1.333333
0.058000 -0.643460 0.410670 0.996215
0.059000 -0.201751 -0.046303 0.102255
0.060000 0.265182 -0.614985 -0.932813
0.061000 0.699857 -1.118430 -1.333333
0.062000 1.049260 -1.333333 -1.333333
0.063000 1.333333 -1.333333 -1.333333
0.064000 1.333333 -1.333333 -1.333333
0.065000 1.333333 -1.333333 -1.333333
0.066000 1.289450 -1.333333 -1.333333
0.067000 0.917796 -1.291000 -1.333333
0.068000 0.579338 -0.889575 -1.333333
0.069000 0.122044 -0.391084 -0.458966
0.070000 -0.317862 0.196249 0.563462
0.071000 -0.763034 0.664369 1.333333
0.072000 -1.129128 1.030743 1.333333
0.073000 -1.333333 1.333333 1.333333
0.074000 -1.333333 1.333333 1.333333
0.075000 -1.333333 1.333333 1.333333
0.076000 -1.308715 1.284720 1.333333
0.077000 -0.959893 0.837909 1.333333
0.078000 -0.608698 0.436035 0.963502
0.079000 -0.230828 -0.112659 0.055159
0.080000 0.224214 -0.724093 -1.008701
0.081000 0.674621 -1.185776 -1.333333
0.082000 1.037132 -1.333333 -1.333333
0.083000 1.333333 -1.333333 -1.333333
0.084000 1.333333 -1.333333 -1.333333
0.085000 1.333333 -1.333333 -1.333333
0.086000 1.279386 -1.333333 -1.333333
0.087000 0.901866 -1.318553 -1.333333
0.088000 0.549698 -0.886685 -1.333333
0.089000 0.117876 -0.430028 -0.463681
0.090000 -0.378344 0.158468 0.585616
0.091000 -0.800744 0.622690 1.333333
0.092000 -1.120608 1.022539 1.333333
0.093000 -1.333333 1.333333 1.333333
0.094000 -1.333333 1.333333 1.333333
0.095000 -1.333333 1.333333 1.333333
0.096000 -1.333333 1.176282 1.333333
0.097000 -1.016886 0.778481 1.333333
0.098000 -0.617608 0.351099 0.927076
0.099000 -0.225253 -0.149840 0.009552
0.100000 0.206695 -0.749188 -1.047520
0.101000 0.635866 -1.249779 -1.333333
0.102000 1.013202 -1.333333 -1.333333
0.103000 1.330261 -1.333333 -1.333333
0.104000 1.333333 -1.333333 -1.333333
0.105000 1.333333 -1.333333 -1.333333
0.106000 1.247898 -1.333333 -1.333333
0.107000 0.857714 -1.333333 -1.333333
0.108000 0.528936 -0.916630 -1.333333
0.109000 0.093034 -0.396379 -0.441092
0.110000 -0.388764 0.149679 0.620729
0.111000 -0.805341 0.655175 1.333333
0.112000 -1.192776 1.020894 1.333333
0.113000 -1.333333 1.313229 1.333333
0.114000 -1.333333 1.333333 1.333333
0.115000 -1.333333 1.322997 1.333333
0.116000 -1.333333 1.184635 1.333333
0.117000 -1.042759 0.710966 1.333333
0.118000 -0.664316 0.302771 0.896222
0.119000 -0.231771 -0.183240 -0.037078
0.120000 0.262630 -0.751611 -1.063578
0.121000 0.699850 -1.210666 -1.333333
0.122000 1.033962 -1.333333 -1.333333
0.123000 1.298667 -1.333333 -1.333333
0.124000 1.333333 -1.333333 -1.333333
0.125000 1.333333 -1.333333 -1.333333
0.126000 1.247101 -1.333333 -1.333333
0.127000 0.858069 -1.319240 -1.333333
0.128000 0.487290 -0.864161 -1.301750
0.129000 0.096997 -0.369669 -0.382566
0.130000 -0.362636 0.192654 0.608739
0.131000 -0.795423 0.662091 1.333333
0.132000 -1.176048 1.013922 1.333333
0.133000 -1.333333 1.333333 1.333333
0.134000 -1.333333 1.333333 1.333333
0.135000 -1.333333 1.333333 1.333333
0.136000 -1.333333 1.212770 1.333333
0.137000 -0.976715 0.771297 1.333333
0.138000 -0.621069 0.356102 0.902449
0.139000 -0.245271 -0.199081 -0.008514
0.140000 0.216033 -0.798859 -1.091786
0.141000 0.701096 -1.261668 -1.333333
0.142000 1.041732 -1.333333 -1.333333
0.143000 1.331458 -1.333333 -1.333333
0.144000 1.333333 -1.333333 -1.333333
0.145000 1.333333 -1.333333 -1.333333
0.146000 1.271515 -1.333333 -1.333333
0.147000 0.880394 -1.333333 -1.333333
0.148000 0.519678 -0.943549 -1.333333
0.149000 0.131261 -0.386386 -0.448167
0.150000 -0.400992 0.163237 0.627497
0.151000 -0.846964 0.628754 1.333333
0.152000 -1.191946 0.991872 1.333333
0.153000 -1.333333 1.295514 1.333333
0.154000 -1.333333 1.333333 1.333333
0.155000 -1.333333 1.333333 1.333333
0.156000 -1.333333 1.191650 1.333333
0.157000 -0.971098 0.763882 1.333333
0.158000 -0.572189 0.326827 0.867194
0.159000 -0.163761 -0.155705 -0.083563
0.160000 0.307876 -0.741406 -1.097057
0.161000 0.741735 -1.182273 -1.333333
0.162000 1.064640 -1.333333 -1.333333
0.163000 1.333333 -1.333333 -1.333333
0.164000 1.333333 -1.333333 -1.333333
0.165000 1.333333 -1.333333 -1.333333
0.166000 1.298207 -1.333333 -1.333333
0.167000 0.951024 -1.089987 -1.333333
0.168000 0.564700 -0.605875 -1.123801
0.169000 0.153123 -0.060537 -0.155603
0.170000 -0.329458 0.522620 0.914496
0.171000 -0.763876 1.051634 1.333333
0.172000 -1.096013 1.333333 1.333333
0.173000 -1.333333 1.333333 1.333333
0.174000 -1.333333 1.333333 1.333333
0.175000 -1.333333 1.333333 1.333333
0.176000 -1.212507 1.333333 1.333333
0.177000 -0.835104 1.328387 1.333333
0.178000 -0.440716 0.945261 1.314116
0.179000 -0.017112 0.472213 0.433511
0.180000 0.443264 -0.042268 -0.533948
0.181000 0.851882 -0.484805 -1.333333
0.182000 1.152142 -0.839890 -1.333333
0.183000 1.333333 -1.116558 -1.333333
0.184000 1.333333 -1.215292 -1.333333
0.185000 1.333333 -1.193239 -1.333333
0.186000 1.293317 -1.083283 -1.333333
0.187000 0.883156 -0.732688 -1.333333
0.188000 0.502058 -0.369757 -0.812202
0.189000 0.044273 0.032044 0.053979
0.190000 -0.442807 0.546037 1.017981
0.191000 -0.860579 0.933418 1.333333
0.192000 -1.238662 1.229815 1.333333
0.193000 -1.333333 1.333333 1.333333
0.194000 -1.333333 1.333333 1.333333
0.195000 -1.333333 1.333333 1.333333
0.196000 -1.333333 1.124423 1.333333
0.197000 -1.091807 0.651442 1.333333
0.198000 -0.705330 0.170601 0.807825
0.199000 -0.295812 -0.406225 -0.168687
0.200000 0.206838 -0.964387 -1.222215
0.201000 0.680762 -1.333333 -1.333333
0.202000 0.997318 -1.333333 -1.333333
0.203000 1.314581 -1.333333 -1.333333
0.204000 1.333333 -1.333333 -1.333333
0.205000 1.333333 -1.333333 -1.333333
0.206000 1.252366 -1.333333 -1.333333
0.207000 0.826055 -1.333333 -1.333333
0.208000 0.438038 -1.025588 -1.333333
0.209000 0.014767 -0.506818 -0.457191
0.210000 -0.483971 0.067792 0.622373
0.211000 -0.910823 0.582238 1.333333
0.212000 -1.197585 0.951005 1.333333
0.213000 -1.333333 1.237912 1.333333
0.214000 -1.333333 1.333333 1.333333
0.215000 -1.333333 1.260901 1.333333
0.216000 -1.333333 1.076071 1.333333
0.217000 -1.027239 0.617118 1.333333
0.218000 -0.638404 0.219837 0.780940
0.219000 -0.212707 -0.281678 -0.153782
0.220000 0.293029 -0.856966 -1.189695
0.221000 0.772857 -1.275627 -1.333333
0.222000 1.094099 -1.333333 -1.333333
0.223000 1.333333 -1.333333 -1.333333
0.224000 1.333333 -1.333333 -1.333333
0.225000 1.333333 -1.333333 -1.333333
0.226000 1.211903 -1.333333 -1.333333
0.227000 0.864367 -1.290983 -1.333333
0.228000 0.523540 -0.816318 -1.287808
0.229000 0.094367 -0.336468 -0.328765
0.230000 -0.410785 0.245520 0.720209
0.231000 -0.862280 0.736882 1.333333
0.232000 -1.215137 1.066028 1.333333
0.233000 -1.333333 1.333333 1.333333
0.234000 -1.333333 1.333333 1.333333
0.235000 -1.333333 1.333333 1.333333
0.236000 -1.333333 1.165054 1.333333
0.237000 -1.028198 0.689782 1.333333
0.238000 -0.603507 0.253377 0.784866
0.239000 -0.161071 -0.258502 -0.151420
0.240000 0.319030 -0.796109 -1.168580
0.241000 0.747282 -1.288662 -1.333333
0.242000 1.066452 -1.333333 -1.333333
0.243000 1.333333 -1.333333 -1.333333
0.244000 1.333333 -1.333333 -1.333333
0.245000 1.333333 -1.333333 -1.333333
0.246000 1.231586 -1.333333 -1.333333
0.247000 0.859848 -1.237337 -1.333333
0.248000 0.466357 -0.834205 -1.203158
0.249000 0.045631 -0.297780 -0.290351
0.250000 -0.417398 0.263974 0.748383
0.251000 -0.855720 0.769054 1.333333
0.252000 -1.184979 1.110004 1.333333
0.253000 -1.333333 1.333333 1.333333
0.254000 -1.333333 1.333333 1.333333
0.255000 -1.333333 1.321259 1.333333
0.256000 -1.333333 1.145776 1.333333
0.257000 -0.932921 0.739544 1.333333
0.258000 -0.553251 0.277553 0.776188
0.259000 -0.110111 -0.191379 -0.166361
0.260000 0.386172 -0.770369 -1.180173
0.261000 0.767734 -1.259835 -1.333333
0.262000 1.094076 -1.333333 -1.333333
0.263000 1.333333 -1.333333 -1.333333
0.264000 1.333333 -1.333333 -1.333333
0.265000 1.333333 -1.333333 -1.333333
0.266000 1.182448 -1.333333 -1.333333
0.267000 0.804100 -1.302235 -1.333333
0.268000 0.407186 -0.841703 -1.195376
0.269000 0.006403 -0.306253 -0.236836
0.270000 -0.430953 0.276340 0.757865
0.271000 -0.846437 0.768028 1.333333
0.272000 -1.150587 1.101563 1.333333
0.273000 -1.333333 1.333333 1.333333
0.274000 -1.333333 1.333333 1.333333
0.275000 -1.333333 1.333333 1.333333
0.276000 -1.326947 1.173144 1.333333
0.277000 -0.932020 0.720839 1.333333
0.278000 -0.542736 0.283357 0.747136
0.279000 -0.108904 -0.228301 -0.168497
0.280000 0.404482 -0.725516 -1.170470
0.281000 0.828810 -1.208271 -1.333333
0.282000 1.130364 -1.333333 -1.333333
0.283000 1.333333 -1.333333 -1.333333
0.284000 1.333333 -1.333333 -1.333333
0.285000 1.333333 -1.333333 -1.333333
0.286000 1.198075 -1.333333 -1.333333
0.287000 0.804944 -1.258624 -1.333333
0.288000 0.487785 -0.748478 -1.168702
0.289000 0.088122 -0.204432 -0.221585
0.290000 -0.396907 0.345971 0.784362
0.291000 -0.849174 0.793595 1.333333
0.292000 -1.203313 1.091000 1.333333
0.293000 -1.333333 1.333333 1.333333
0.294000 -1.333333 1.333333 1.333333
0.295000 -1.333333 1.333333 1.333333
0.296000 -1.282748 1.174922 1.333333
0.297000 -0.920663 0.746694 1.333333
0.298000 -0.540524 0.258075 0.745296
0.299000 -0.139068 -0.259952 -0.186544
0.300000 0.338796 -0.798032 -1.190489
0.301000 0.784005 -1.299217 -1.333333
0.302000 1.097205 -1.333333 -1.333333
0.303000 1.333333 -1.333333 -1.333333
0.304000 1.333333 -1.333333 -1.333333
0.305000 1.333333 -1.333333 -1.333333
0.306000 1.241840 -1.333333 -1.333333
0.307000 0.876404 -1.229993 -1.333333
0.308000 0.472426 -0.766922 -1.145544
0.309000 0.014154 -0.264410 -0.212804
0.310000 -0.456663 0.275962 0.814795
0.311000 -0.909683 0.808014 1.333333
0.312000 -1.240065 1.103429 1.333333
0.313000 -1.333333 1.333333 1.333333
0.314000 -1.333333 1.333333 1.333333
0.315000 -1.333333 1.333333 1.333333
0.316000 -1.263522 1.188149 1.333333
0.317000 -0.905055 0.721314 1.333333
0.318000 -0.478626 0.303065 0.713621
0.319000 -0.028012 -0.173833 -0.202015
0.320000 0.431924 -0.721554 -1.207784
0.321000 0.848365 -1.226661 -1.333333
0.322000 1.198602 -1.333333 -1.333333
0.323000 1.333333 -1.333333 -1.333333
0.324000 1.333333 -1.333333 -1.333333
0.325000 1.333333 -1.333333 -1.333333
0.326000 1.216818 -1.333333 -1.333333
0.327000 0.835420 -1.203786 -1.333333
0.328000 0.433353 -0.737907 -1.109869
0.329000 0.002870 -0.250097 -0.154935
0.330000 -0.456698 0.322471 0.811170
0.331000 -0.875275 0.807871 1.333333
0.332000 -1.170348 1.150304 1.333333
0.333000 -1.333333 1.333333 1.333333
0.334000 -1.333333 1.333333 1.333333
0.335000 -1.333333 1.333333 1.333333
0.336000 -1.255822 1.174692 1.333333
0.337000 -0.876180 0.752397 1.333333
0.338000 -0.481747 0.273729 0.690905
0.339000 -0.100088 -0.261557 -0.234881
0.340000 0.366891 -0.764583 -1.217061
0.341000 0.816370 -1.242391 -1.333333
0.342000 1.151222 -1.333333 -1.333333
0.343000 1.333333 -1.333333 -1.333333
0.344000 1.333333 -1.333333 -1.333333
0.345000 1.333333 -1.333333 -1.333333
0.346000 1.258563 -1.333333 -1.333333
0.347000 0.889441 -1.138656 -1.333333
0.348000 0.496387 -0.675477 -1.080611
0.349000 0.060005 -0.148770 -0.138698
0.350000 -0.414235 0.374646 0.869340
0.351000 -0.821559 0.875290 1.333333
0.352000 -1.151347 1.186098 1.333333
0.353000 -1.333333 1.333333 1.333333
0.354000 -1.333333 1.333333 1.333333
0.355000 -1.333333 1.333333 1.333333
0.356000 -1.261139 1.170853 1.333333
0.357000 -0.879740 0.768586 1.333333
0.358000 -0.443972 0.308967 0.696585
0.359000 -0.004762 -0.184118 -0.290077
0.360000 0.449807 -0.748257 -1.256037
0.361000 0.892701 -1.178470 -1.333333
0.362000 1.227054 -1.333333 -1.333333
0.363000 1.333333 -1.333333 -1.333333
0.364000 1.333333 -1.333333 -1.333333
0.365000 1.333333 -1.333333 -1.333333
0.366000 1.252584 -1.333333 -1.333333
0.367000 0.906827 -1.112187 -1.333333
0.368000 0.526700 -0.605960 -1.072428
0.369000 0.072326 -0.120414 -0.094178
0.370000 -0.431273 0.411500 0.906538
0.371000 -0.895948 0.879280 1.333333
0.372000 -1.171650 1.197907 1.333333
0.373000 -1.333333 1.333333 1.333333
0.374000 -1.333333 1.333333 1.333333
0.375000 -1.333333 1.333333 1.333333
0.376000 -1.139675 1.272988 1.333333
0.377000 -0.785276 0.820495 1.333333
0.378000 -0.389374 0.353405 0.646005
0.379000 0.026936 -0.184391 -0.267495
0.380000 0.484696 -0.699226 -1.252646
0.381000 0.915926 -1.208530 -1.333333
0.382000 1.223961 -1.333333 -1.333333
0.383000 1.333333 -1.333333 -1.333333
0.384000 1.333333 -1.333333 -1.333333
0.385000 1.333333 -1.333333 -1.333333
0.386000 1.276642 -1.333333 -1.333333
0.387000 0.931962 -1.071522 -1.333333
0.388000 0.523364 -0.604860 -1.039457
0.389000 0.087380 -0.052085 -0.067644
0.390000 -0.414110 0.454174 0.933022
0.391000 -0.823810 0.947148 1.333333
0.392000 -1.169188 1.280686 1.333333
0.393000 -1.333333 1.333333 1.333333
0.394000 -1.333333 1.333333 1.333333
0.395000 -1.333333 1.333333 1.333333
0.396000 -1.212425 1.260859 1.333333
0.397000 -0.844678 0.826125 1.333333
0.398000 -0.422618 0.348922 0.710185
0.399000 0.015014 -0.159739 -0.277081
0.400000 0.464502 -0.724343 -1.221523
0.401000 0.921023 -1.151812 -1.333333
0.402000 1.190514 -1.333333 -1.333333
0.403000 1.333333 -1.333333 -1.333333
0.404000 1.333333 -1.333333 -1.333333
0.405000 1.333333 -1.333333 -1.333333
0.406000 1.290564 -1.333333 -1.333333
0.407000 0.932626 -1.057911 -1.333333
0.408000 0.491463 -0.576317 -1.011442
0.409000 0.039839 -0.097572 -0.047655
0.410000 -0.405631 0.463670 0.938387
0.411000 -0.853143 0.947327 1.333333
0.412000 -1.178720 1.221273 1.333333
0.413000 -1.333333 1.333333 1.333333
0.414000 -1.333333 1.333333 1.333333
0.415000 -1.333333 1.333333 1.333333
0.416000 -1.174642 1.249202 1.333333
0.417000 -0.801327 0.811355 1.333333
0.418000 -0.415635 0.331803 0.670956
0.419000 -0.001171 -0.233261 -0.293466
0.420000 0.445248 -0.778037 -1.283451
0.421000 0.873931 -1.214232 -1.333333
0.422000 1.152200 -1.333333 -1.333333
0.423000 1.333333 -1.333333 -1.333333
0.424000 1.333333 -1.333333 -1.333333
0.425000 1.333333 -1.333333 -1.333333
0.426000 1.226004 -1.333333 -1.333333
0.427000 0.870938 -1.069120 -1.333333
0.428000 0.454710 -0.555634 -0.938238
0.429000 0.010687 -0.053115 -0.000407
0.430000 -0.476039 0.452695 0.987539
0.431000 -0.913961 0.902593 1.333333
0.432000 -1.189052 1.250141 1.333333
0.433000 -1.333333 1.333333 1.333333
0.434000 -1.333333 1.333333 1.333333
0.435000 -1.333333 1.333333 1.333333
0.436000 -1.222588 1.153594 1.333333
0.437000 -0.870018 0.736347 1.333333
0.438000 -0.476684 0.224795 0.626258
0.439000 -0.019706 -0.281120 -0.344525
0.440000 0.437162 -0.807005 -1.299535
0.441000 0.859192 -1.290948 -1.333333
0.442000 1.097352 -1.333333 -1.333333
0.443000 1.315275 -1.333333 -1.333333
0.444000 1.333333 -1.333333 -1.333333
0.445000 1.333333 -1.333333 -1.333333
0.446000 1.137533 -1.333333 -1.333333
0.447000 0.781973 -1.159260 -1.333333
0.448000 0.374437 -0.640905 -0.946725
0.449000 -0.072317 -0.122818 0.009318
0.450000 -0.512775 0.403531 0.980597
0.451000 -0.949210 0.874863 1.333333
0.452000 -1.253227 1.163772 1.333333
0.453000 -1.333333 1.333333 1.333333
0.454000 -1.333333 1.333333 1.333333
0.455000 -1.333333 1.333333 1.333333
0.456000 -1.250894 1.120240 1.333333
0.457000 -0.911813 0.674199 1.333333
0.458000 -0.446814 0.245072 0.602258
0.459000 0.035872 -0.268336 -0.383190
0.460000 0.494839 -0.810716 -1.333333
0.461000 0.875205 -1.294930 -1.333333
0.462000 1.158206 -1.333333 -1.333333
0.463000 1.333333 -1.333333 -1.333333
0.464000 1.333333 -1.333333 -1.333333
0.465000 1.333333 -1.333333 -1.333333
0.466000 1.130051 -1.333333 -1.333333
0.467000 0.766714 -1.178629 -1.333333
0.468000 0.341595 -0.671780 -0.969145
0.469000 -0.058917 -0.137290 0.001112
0.470000 -0.467739 0.464704 0.983495
0.471000 -0.896489 0.936351 1.333333
0.472000 -1.292607 1.158354 1.333333
0.473000 -1.333333 1.333333 1.333333
0.474000 -1.333333 1.333333 1.333333
0.475000 -1.333333 1.333333 1.333333
0.476000 -1.244653 1.079467 1.333333
0.477000 -0.867206 0.716882 1.333333
0.478000 -0.466945 0.191748 0.593768
0.479000 -0.052394 -0.385086 -0.377976
0.480000 0.407068 -0.899494 -1.333333
0.481000 0.839416 -1.333333 -1.333333
0.482000 1.150138 -1.333333 -1.333333
0.483000 1.333333 -1.333333 -1.333333
0.484000 1.333333 -1.333333 -1.333333
0.485000 1.316417 -1.333333 -1.333333
0.486000 1.144956 -1.333333 -1.333333
0.487000 0.801436 -1.135903 -1.333333
0.488000 0.346322 -0.676439 -0.917109
0.489000 -0.137007 -0.158358 0.028019
0.490000 -0.587858 0.360239 1.022864
0.491000 -0.961123 0.870332 1.333333
0.492000 -1.241671 1.193244 1.333333
0.493000 -1.333333 1.333333 1.333333
0.494000 -1.333333 1.333333 1.333333
0.495000 -1.333333 1.317436 1.333333
0.496000 -1.232667 1.075188 1.333333
0.497000 -0.860445 0.682668 1.333333
0.498000 -0.418042 0.168907 0.528619
0.499000 0.013306 -0.338912 -0.428960
0.500000 0.465308 -0.905454 -1.333333
0.501000 0.843825 -1.333333 -1.333333
0.502000 1.175367 -1.333333 -1.333333
0.503000 1.333333 -1.333333 -1.333333
0.504000 1.333333 -1.333333 -1.333333
0.505000 1.333333 -1.333333 -1.333333
0.506000 1.140905 -1.333333 -1.333333
0.507000 0.751756 -1.153796 -1.333333
0.508000 0.293206 -0.634919 -0.888645
0.509000 -0.138035 -0.144508 0.070081
0.510000 -0.576947 0.370241 1.011763
0.511000 -0.950082 0.873267 1.333333
0.512000 -1.263559 1.163509 1.333333
0.513000 -1.333333 1.333333 1.333333
0.514000 -1.333333 1.333333 1.333333
0.515000 -1.333333 1.324167 1.333333
0.516000 -1.260966 1.059062 1.333333
0.517000 -0.921664 0.631436 1.333333
0.518000 -0.508292 0.136834 0.565803
0.519000 -0.013710 -0.393988 -0.421658
0.520000 0.475753 -0.888671 -1.333333
0.521000 0.872833 -1.333333 -1.333333
0.522000 1.162442 -1.333333 -1.333333
0.523000 1.333333 -1.333333 -1.333333
0.524000 1.333333 -1.333333 -1.333333
0.525000 1.319347 -1.333333 -1.333333
0.526000 1.113820 -1.333333 -1.333333
0.527000 0.749643 -1.122727 -1.333333
0.528000 0.306925 -0.650074 -0.882680
0.529000 -0.119153 -0.109470 0.099386
0.530000 -0.566470 0.438559 1.058436
0.531000 -0.959573 0.884381 1.333333
0.532000 -1.236731 1.213774 1.333333
0.533000 -1.333333 1.333333 1.333333
0.534000 -1.333333 1.333333 1.333333
0.535000 -1.333333 1.333333 1.333333
0.536000 -1.184897 1.067575 1.333333
0.537000 -0.835912 0.680981 1.333333
0.538000 -0.387691 0.162622 0.502911
0.539000 0.047147 -0.339576 -0.469427
0.540000 0.487812 -0.852813 -1.333333
0.541000 0.906629 -1.314929 -1.333333
0.542000 1.156056 -1.333333 -1.333333
0.543000 1.333333 -1.333333 -1.333333
0.544000 1.333333 -1.333333 -1.333333
0.545000 1.321725 -1.333333 -1.333333
0.546000 1.079883 -1.333333 -1.333333
0.547000 0.738215 -1.130118 -1.333333
0.548000 0.344034 -0.575889 -0.847092
0.549000 -0.096670 -0.054089 0.102517
0.550000 -0.550304 0.443783 1.082961
0.551000 -0.997864 0.897840 1.333333
0.552000 -1.293144 1.190233 1.333333
0.553000 -1.333333 1.333333 1.333333
0.554000 -1.333333 1.333333 1.333333
0.555000 -1.333333 1.333333 1.333333
0.556000 -1.232455 1.035408 1.333333
0.557000 -0.866438 0.647484 1.333333
0.558000 -0.411692 0.139720 0.483655
0.559000 0.034966 -0.390885 -0.483325
0.560000 0.471664 -0.916447 -1.333333
0.561000 0.899576 -1.333333 -1.333333
0.562000 1.190268 -1.333333 -1.333333
0.563000 1.333333 -1.333333 -1.333333
0.564000 1.333333 -1.333333 -1.333333
0.565000 1.307702 -1.333333 -1.333333
0.566000 1.029733 -1.333333 -1.333333
0.567000 0.711391 -1.104183 -1.333333
0.568000 0.338171 -0.557845 -0.840494
0.569000 -0.072451 -0.021745 0.153214
0.570000 -0.598983 0.470462 1.112850
0.571000 -1.020898 0.909519 1.333333
0.572000 -1.299879 1.232118 1.333333
0.573000 -1.333333 1.333333 1.333333
0.574000 -1.333333 1.333333 1.333333
0.575000 -1.333333 1.333333 1.333333
0.576000 -1.201299 1.008536 1.333333
0.577000 -0.875390 0.611333 1.333333
0.578000 -0.423933 0.140198 0.499629
0.579000 0.004338 -0.435720 -0.490615
0.580000 0.461603 -0.930648 -1.333333
0.581000 0.895629 -1.333333 -1.333333
0.582000 1.204751 -1.333333 -1.333333
0.583000 1.333333 -1.333333 -1.333333
0.584000 1.333333 -1.333333 -1.333333
0.585000 1.294118 -1.333333 -1.333333
0.586000 1.081608 -1.333333 -1.333333
0.587000 0.783812 -1.075806 -1.333333
0.588000 0.367250 -0.561906 -0.836214
0.589000 -0.103587 -0.026300 0.144928
0.590000 -0.592135 0.453259 1.103955
0.591000 -0.987243 0.909030 1.333333
0.592000 -1.306836 1.230528 1.333333
0.593000 -1.333333 1.333333 1.333333
0.594000 -1.333333 1.333333 1.333333
0.595000 -1.333333 1.323508 1.333333
0.596000 -1.193127 1.015074 1.333333
0.597000 -0.834233 0.635961 1.333333
0.598000 -0.367221 0.125832 0.448296
0.599000 0.046232 -0.397406 -0.536170
0.600000 0.463738 -0.929377 -1.333333
0.601000 0.867988 -1.333333 -1.333333
0.602000 1.170875 -1.333333 -1.333333
0.603000 1.333333 -1.333333 -1.333333
0.604000 1.333333 -1.333333 -1.333333
0.605000 1.333333 -1.333333 -1.333333
0.606000 1.055535 -1.333333 -1.333333
0.607000 0.724022 -1.109664 -1.333333
0.608000 0.338032 -0.559190 -0.842854
0.609000 -0.089260 -0.001756 0.165793
0.610000 -0.567623 0.513478 1.145125
0.611000 -0.991028 0.975911 1.333333
0.612000 -1.306436 1.240773 1.333333
0.613000 -1.333333 1.333333 1.333333
0.614000 -1.333333 1.333333 1.333333
0.615000 -1.333333 1.333333 1.333333
0.616000 -1.160657 1.025802 1.333333
0.617000 -0.831561 0.599193 1.333333
0.618000 -0.414064 0.105224 0.456467
0.619000 0.046659 -0.433391 -0.535386
0.620000 0.469541 -0.962711 -1.333333
0.621000 0.912330 -1.333333 -1.333333
0.622000 1.180445 -1.333333 -1.333333
0.623000 1.333333 -1.333333 -1.333333
0.624000 1.333333 -1.333333 -1.333333
0.625000 1.333333 -1.333333 -1.333333
0.626000 1.099713 -1.333333 -1.333333
0.627000 0.742567 -1.049938 -1.333333
0.628000 0.275792 -0.561920 -0.775193
0.629000 -0.186304 -0.037551 0.213029
0.630000 -0.621733 0.503032 1.168150
0.631000 -1.006287 0.945329 1.333333
0.632000 -1.326680 1.262506 1.333333
0.633000 -1.333333 1.333333 1.333333
0.634000 -1.333333 1.333333 1.333333
0.635000 -1.333333 1.333333 1.333333
0.636000 -1.141002 1.004569 1.333333
0.637000 -0.821958 0.621205 1.333333
0.638000 -0.398807 0.075011 0.445062
0.639000 0.063532 -0.440297 -0.586732
0.640000 0.514471 -0.940582 -1.333333
0.641000 0.914990 -1.333333 -1.333333
0.642000 1.237621 -1.333333 -1.333333
0.643000 1.333333 -1.333333 -1.333333
0.644000 1.333333 -1.333333 -1.333333
0.645000 1.302070 -1.333333 -1.333333
0.646000 1.049089 -1.333333 -1.333333
0.647000 0.713986 -1.041402 -1.333333
0.648000 0.305459 -0.505123 -0.757124
0.649000 -0.138735 0.015540 0.216673
0.650000 -0.629203 0.476735 1.185838
0.651000 -1.083472 0.915166 1.333333
0.652000 -1.333333 1.268552 1.333333
0.653000 -1.333333 1.333333 1.333333
0.654000 -1.333333 1.333333 1.333333
0.655000 -1.333333 1.320873 1.333333
0.656000 -1.194199 0.973545 1.333333
0.657000 -0.864531 0.542668 1.333333
0.658000 -0.416662 0.043001 0.394119
0.659000 0.121771 -0.435863 -0.631688
0.660000 0.571687 -0.961324 -1.333333
0.661000 0.937288 -1.333333 -1.333333
0.662000 1.203904 -1.333333 -1.333333
0.663000 1.333333 -1.333333 -1.333333
0.664000 1.333333 -1.333333 -1.333333
0.665000 1.315118 -1.333333 -1.333333
0.666000 1.061500 -1.333333 -1.333333
0.667000 0.714173 -1.037751 -1.333333
0.668000 0.247442 -0.528992 -0.732082
0.669000 -0.220251 -0.021742 0.282226
0.670000 -0.647834 0.519127 1.233171
0.671000 -1.064830 0.941291 1.333333
0.672000 -1.333333 1.245429 1.333333
0.673000 -1.333333 1.333333 1.333333
0.674000 -1.333333 1.333333 1.333333
0.675000 -1.333333 1.330057 1.333333
0.676000 -1.149158 0.957766 1.333333
0.677000 -0.810233 0.585005 1.332443
0.678000 -0.400726 0.043518 0.397910
0.679000 0.067020 -0.495736 -0.627555
0.680000 0.513640 -0.996192 -1.333333
0.681000 0.924318 -1.333333 -1.333333
0.682000 1.263832 -1.333333 -1.333333
0.683000 1.333333 -1.333333 -1.333333
0.684000 1.333333 -1.333333 -1.333333
0.685000 1.332635 -1.333333 -1.333333
0.686000 1.070133 -1.333333 -1.333333
0.687000 0.705945 -1.022799 -1.333333
0.688000 0.251938 -0.525630 -0.706664
0.689000 -0.197770 0.050721 0.282218
0.690000 -0.645320 0.541482 1.257612
0.691000 -1.055379 0.997264 1.333333
0.692000 -1.333333 1.303247 1.333333
0.693000 -1.333333 1.333333 1.333333
0.694000 -1.333333 1.333333 1.333333
0.695000 -1.333333 1.333333 1.333333
0.696000 -1.138469 0.989777 1.333333
0.697000 -0.808984 0.595049 1.333333
0.698000 -0.338398 0.093731 0.381148
0.699000 0.105272 -0.456852 -0.642993
0.700000 0.534587 -0.978659 -1.333333
0.701000 0.919432 -1.333333 -1.333333
0.702000 1.178748 -1.333333 -1.333333
0.703000 1.333333 -1.333333 -1.333333
0.704000 1.333333 -1.333333 -1.333333
0.705000 1.333333 -1.333333 -1.333333
0.706000 1.056070 -1.333333 -1.333333
0.707000 0.740370 -0.962596 -1.333333
0.708000 0.282042 -0.442706 -0.687979
0.709000 -0.199571 0.081552 0.348964
0.710000 -0.672728 0.554614 1.270014
0.711000 -1.039485 1.016744 1.333333
0.712000 -1.330925 1.333333 1.333333
0.713000 -1.333333 1.333333 1.333333
0.714000 -1.333333 1.333333 1.333333
0.715000 -1.333333 1.333333 1.333333
0.716000 -1.059992 1.021562 1.333333
0.717000 -0.767476 0.622061 1.333333
0.718000 -0.360910 0.112861 0.392271
0.719000 0.109849 -0.459714 -0.641307
0.720000 0.558521 -0.954742 -1.333333
0.721000 0.973500 -1.333333 -1.333333
0.722000 1.250875 -1.333333 -1.333333
0.723000 1.333333 -1.333333 -1.333333
0.724000 1.333333 -1.333333 -1.333333
0.725000 1.287370 -1.333333 -1.333333
0.726000 1.013125 -1.333333 -1.333333
0.727000 0.655765 -0.984389 -1.333333
0.728000 0.232430 -0.470228 -0.644761
0.729000 -0.222957 0.073117 0.372062
0.730000 -0.657247 0.606410 1.312359
0.731000 -1.053812 1.028507 1.333333
0.732000 -1.333333 1.333333 1.333333
0.733000 -1.333333 1.333333 1.333333
0.734000 -1.333333 1.333333 1.333333
0.735000 -1.333333 1.333333 1.333333
0.736000 -1.099672 0.965401 1.333333
0.737000 -0.773490 0.605329 1.297476
0.738000 -0.299209 0.091495 0.351894
0.739000 0.180775 -0.424676 -0.678603
0.740000 0.617720 -0.940599 -1.333333
0.741000 0.941796 -1.333333 -1.333333
0.742000 1.235112 -1.333333 -1.333333
0.743000 1.333333 -1.333333 -1.333333
0.744000 1.333333 -1.333333 -1.333333
0.745000 1.315118 -1.333333 -1.333333
0.746000 1.016136 -1.333333 -1.333333
0.747000 0.698070 -0.982840 -1.333333
0.748000 0.265795 -0.465446 -0.676742
0.749000 -0.224107 0.056472 0.333814
0.750000 -0.657976 0.567148 1.305500
0.751000 -1.062203 1.010898 1.333333
0.752000 -1.333333 1.333333 1.333333
0.753000 -1.333333 1.333333 1.333333
0.754000 -1.333333 1.333333 1.333333
0.755000 -1.333333 1.333333 1.333333
0.756000 -1.046858 1.017472 1.333333
0.757000 -0.738329 0.607392 1.298413
0.758000 -0.351218 0.050683 0.325334
0.759000 0.113154 -0.527706 -0.695794
0.760000 0.579014 -1.013550 -1.333333
0.761000 0.947083 -1.333333 -1.333333
0.762000 1.298776 -1.333333 -1.333333
0.763000 1.333333 -1.333333 -1.333333
0.764000 1.333333 -1.333333 -1.333333
0.765000 1.289160 -1.333333 -1.333333
0.766000 0.962374 -1.333333 -1.333333
0.767000 0.674619 -1.016765 -1.333333
0.768000 0.266377 -0.486193 -0.705176
0.769000 -0.227785 0.043753 0.368853
0.770000 -0.671300 0.585549 1.289457
0.771000 -1.077586 0.994674 1.333333
0.772000 -1.333333 1.333333 1.333333
0.773000 -1.333333 1.333333 1.333333
0.774000 -1.333333 1.333333 1.333333
0.775000 -1.333333 1.299933 1.333333
0.776000 -1.142900 0.873589 1.333333
0.777000 -0.805218 0.494542 1.228525
0.778000 -0.368601 0.005450 0.314469
0.779000 0.122584 -0.539689 -0.709675
0.780000 0.586770 -1.028663 -1.333333
0.781000 0.946491 -1.333333 -1.333333
0.782000 1.258255 -1.333333 -1.333333
0.783000 1.333333 -1.333333 -1.333333
0.784000 1.333333 -1.333333 -1.333333
0.785000 1.291609 -1.333333 -1.333333
0.786000 1.010288 -1.333333 -1.333333
0.787000 0.656496 -1.002834 -1.333333
0.788000 0.193940 -0.535483 -0.650355
0.789000 -0.266825 0.050727 0.373383
0.790000 -0.658051 0.605629 1.317459
0.791000 -1.051041 1.006342 1.333333
0.792000 -1.333333 1.303338 1.333333
0.793000 -1.333333 1.333333 1.333333
0.794000 -1.333333 1.333333 1.333333
0.795000 -1.333333 1.328702 1.333333
0.796000 -1.061309 0.937104 1.333333
0.797000 -0.741205 0.537550 1.195042
0.798000 -0.312234 0.000047 0.280969
0.799000 0.139374 -0.532288 -0.752809
0.800000 0.588264 -1.019824 -1.333333
0.801000 0.950289 -1.333333 -1.333333
0.802000 1.288016 -1.333333 -1.333333
0.803000 1.333333 -1.333333 -1.333333
0.804000 1.333333 -1.333333 -1.333333
0.805000 1.276320 -1.333333 -1.333333
0.806000 0.961775 -1.333333 -1.333333
0.807000 0.652449 -0.985879 -1.333333
0.808000 0.203316 -0.463180 -0.630405
0.809000 -0.303077 0.047889 0.425425
0.810000 -0.725989 0.557172 1.333333
0.811000 -1.106795 1.000369 1.333333
0.812000 -1.333333 1.300756 1.333333
0.813000 -1.333333 1.333333 1.333333
0.814000 -1.333333 1.333333 1.333333
0.815000 -1.333333 1.299214 1.333333
0.816000 -1.065859 0.932113 1.333333
0.817000 -0.728201 0.515832 1.183018
0.818000 -0.332566 0.000504 0.251210
0.819000 0.145318 -0.574514 -0.762317
0.820000 0.569480 -1.072121 -1.333333
0.821000 0.963778 -1.333333 -1.333333
0.822000 1.271455 -1.333333 -1.333333
0.823000 1.333333 -1.333333 -1.333333
0.824000 1.333333 -1.333333 -1.333333
0.825000 1.322754 -1.333333 -1.333333
0.826000 1.047744 -1.333333 -1.333333
0.827000 0.689126 -0.968231 -1.333333
0.828000 0.201444 -0.524148 -0.674536
0.829000 -0.258189 0.036905 0.374723
0.830000 -0.765528 0.507862 1.303668
0.831000 -1.123689 0.943548 1.333333
0.832000 -1.333333 1.332559 1.333333
0.833000 -1.333333 1.333333 1.333333
0.834000 -1.333333 1.333333 1.333333
0.835000 -1.333333 1.274419 1.333333
0.836000 -1.070033 0.895172 1.333333
0.837000 -0.697019 0.538068 1.158492
0.838000 -0.196389 0.055358 0.211720
0.839000 0.311282 -0.474955 -0.857179
0.840000 0.699766 -0.981508 -1.333333
0.841000 1.013082 -1.333333 -1.333333
0.842000 1.313554 -1.333333 -1.333333
0.843000 1.333333 -1.333333 -1.333333
0.844000 1.333333 -1.333333 -1.333333
0.845000 1.333333 -1.333333 -1.333333
0.846000 1.034669 -1.112116 -1.333333
0.847000 0.696618 -0.682237 -1.314615
0.848000 0.238265 -0.181595 -0.352488
0.849000 -0.236160 0.437551 0.726274
0.850000 -0.674828 0.945967 1.333333
0.851000 -1.052596 1.333333 1.333333
0.852000 -1.328757 1.333333 1.333333
0.853000 -1.333333 1.333333 1.333333
0.854000 -1.333333 1.333333 1.333333
0.855000 -1.254687 1.333333 1.333333
0.856000 -0.931471 1.333333 1.333333
0.857000 -0.523990 1.207801 1.333333
0.858000 -0.093379 0.763133 0.797133
0.859000 0.318202 0.192622 -0.186546
0.860000 0.734325 -0.290929 -1.064632
0.861000 1.117086 -0.635718 -1.333333
0.862000 1.333333 -0.965667 -1.333333
0.863000 1.333333 -1.120122 -1.333333
0.864000 1.333333 -1.210723 -1.333333
0.865000 1.286695 -1.120732 -1.333333
0.866000 0.950818 -0.769103 -1.333333
0.867000 0.641190 -0.419234 -0.991595
0.868000 0.162923 0.009922 -0.115920
0.869000 -0.356892 0.440212 0.857635
0.870000 -0.812629 0.867557 1.333333
0.871000 -1.170841 1.235993 1.333333
0.872000 -1.333333 1.333333 1.333333
0.873000 -1.333333 1.333333 1.333333
0.874000 -1.333333 1.333333 1.333333
0.875000 -1.333333 1.272045 1.333333
0.876000 -1.145199 0.815059 1.333333
0.877000 -0.797449 0.375004 1.107595
0.878000 -0.381232 -0.168302 0.144515
0.879000 0.126782 -0.759969 -0.928034
0.880000 0.588784 -1.227299 -1.333333
0.881000 0.954655 -1.333333 -1.333333
0.882000 1.242737 -1.333333 -1.333333
0.883000 1.333333 -1.333333 -1.333333
0.884000 1.333333 -1.333333 -1.333333
0.885000 1.282359 -1.333333 -1.333333
0.886000 0.891721 -1.333333 -1.333333
0.887000 0.510310 -1.139152 -1.333333
0.888000 0.104581 -0.625448 -0.659344
0.889000 -0.393288 -0.057019 0.371300
0.890000 -0.811283 0.456882 1.320931
0.891000 -1.180232 0.862621 1.333333
0.892000 -1.333333 1.218527 1.333333
0.893000 -1.333333 1.320864 1.333333
0.894000 -1.333333 1.327132 1.333333
0.895000 -1.333333 1.208168 1.333333
0.896000 -1.080727 0.816369 1.333333
0.897000 -0.705553 0.444581 1.086321
0.898000 -0.267836 -0.057507 0.155142
0.899000 0.189269 -0.602792 -0.869146
0.900000 0.599275 -1.110620 -1.333333
0.901000 0.956042 -1.333333 -1.333333
0.902000 1.292583 -1.333333 -1.333333
0.903000 1.333333 -1.333333 -1.333333
0.904000 1.333333 -1.333333 -1.333333
0.905000 1.285285 -1.333333 -1.333333
0.906000 0.911567 -1.323415 -1.333333
0.907000 0.569010 -0.946728 -1.333333
0.908000 0.185839 -0.371215 -0.518234
0.909000 -0.285278 0.174869 0.513863
0.910000 -0.732745 0.630699 1.333333
0.911000 -1.110560 1.047694 1.333333
0.912000 -1.333333 1.333333 1.333333
0.913000 -1.333333 1.333333 1.333333
0.914000 -1.333333 1.333333 1.333333
0.915000 -1.333333 1.314435 1.333333
0.916000 -1.057414 0.855231 1.333333
0.917000 -0.749052 0.440043 1.133716
0.918000 -0.289850 -0.037722 0.184814
0.919000 0.188051 -0.615555 -0.857972
0.920000 0.651607 -1.085659 -1.333333
0.921000 1.051711 -1.333333 -1.333333
0.922000 1.333333 -1.333333 -1.333333
0.923000 1.333333 -1.333333 -1.333333
0.924000 1.333333 -1.333333 -1.333333
0.925000 1.254983 -1.333333 -1.333333
0.926000 0.915639 -1.331471 -1.333333
0.927000 0.548010 -0.904407 -1.333333
0.928000 0.132122 -0.409820 -0.476460
0.929000 -0.355159 0.145925 0.560180
0.930000 -0.769978 0.632914 1.333333
0.931000 -1.097896 1.045827 1.333333
0.932000 -1.333333 1.333333 1.333333
0.933000 -1.333333 1.333333 1.333333
0.934000 -1.333333 1.333333 1.333333
0.935000 -1.333333 1.299231 1.333333
0.936000 -1.038701 0.866115 1.333333
0.937000 -0.692019 0.475458 1.086470
0.938000 -0.273565 -0.032252 0.197448
0.939000 0.209353 -0.569660 -0.857569
0.940000 0.683252 -1.037174 -1.333333
0.941000 1.010615 -1.333333 -1.333333
0.942000 1.333333 -1.333333 -1.333333
0.943000 1.333333 -1.333333 -1.333333
0.944000 1.333333 -1.333333 -1.333333
0.945000 1.330549 -1.333333 -1.333333
0.946000 1.003813 -1.260930 -1.333333
0.947000 0.634916 -0.869992 -1.333333
0.948000 0.176473 -0.369031 -0.491161
0.949000 -0.315191 0.190908 0.558457
0.950000 -0.742568 0.663636 1.333333
0.951000 -1.102402 1.079546 1.333333
0.952000 -1.333333 1.333333 1.333333
0.953000 -1.333333 1.333333 1.333333
0.954000 -1.333333 1.333333 1.333333
0.955000 -1.333333 1.278679 1.333333
0.956000 -1.027496 0.883462 1.333333
0.957000 -0.651065 0.474619 1.092792
0.958000 -0.225810 -0.015584 0.124577
0.959000 0.214953 -0.644099 -0.898451
0.960000 0.641838 -1.118770 -1.333333
0.961000 1.029170 -1.333333 -1.333333
0.962000 1.333333 -1.333333 -1.333333
0.963000 1.333333 -1.333333 -1.333333
0.964000 1.333333 -1.333333 -1.333333
0.965000 1.262646 -1.333333 -1.333333
0.966000 0.925850 -1.308876 -1.333333
0.967000 0.549743 -0.896952 -1.333333
0.968000 0.121293 -0.376047 -0.445461
0.969000 -0.335867 0.189329 0.607064
0.970000 -0.757939 0.724747 1.333333
0.971000 -1.124201 1.108271 1.333333
0.972000 -1.333333 1.333333 1.333333
0.973000 -1.333333 1.333333 1.333333
0.974000 -1.333333 1.333333 1.333333
0.975000 -1.333333 1.333333 1.333333
0.976000 -0.999727 0.885153 1.333333
0.977000 -0.660086 0.472759 1.050710
0.978000 -0.276123 -0.057961 0.167909
0.979000 0.215068 -0.630107 -0.911623
0.980000 0.672902 -1.084967 -1.333333
0.981000 1.030138 -1.333333 -1.333333
0.982000 1.318184 -1.333333 -1.333333
0.983000 1.333333 -1.333333 -1.333333
0.984000 1.333333 -1.333333 -1.333333
0.985000 1.333333 -1.333333 -1.333333
0.986000 0.936549 -1.264220 -1.333333
0.987000 0.558001 -0.860108 -1.333333
0.988000 0.131268 -0.362487 -0.420665
0.989000 -0.355629 0.206657 0.607100
0.990000 -0.791579 0.675102 1.333333
0.991000 -1.136327 1.085365 1.333333
0.992000 -1.333333 1.333333 1.333333
0.993000 -1.333333 1.333333 1.333333
0.994000 -1.333333 1.333333 1.333333
0.995000 -1.333333 1.322574 1.333333
0.996000 -0.968131 0.900407 1.333333
0.997000 -0.626802 0.469614 1.027115
0.998000 -0.208855 -0.045731 0.104477
0.999000 0.282539 -0.606362 -0.952395
1.000000 0.727354 -1.086993 -1.333333
1.001000 1.041414 -1.333333 -1.333333
1.002000 1.333333 -1.333333 -1.333333
1.003000 1.333333 -1.333333 -1.333333
1.004000 1.333333 -1.333333 -1.333333
1.005000 1.309579 -1.333333 -1.333333
1.006000 0.951401 -1.238684 -1.333333
1.007000 0.616199 -0.811874 -1.333333
1.008000 0.214617 -0.304137 -0.472062
1.009000 -0.296129 0.244813 0.621589
1.010000 -0.746138 0.767145 1.333333
1.011000 -1.074369 1.173985 1.333333
1.012000 -1.333333 1.333333 1.333333
1.013000 -1.333333 1.333333 1.333333
1.014000 -1.333333 1.333333 1.333333
1.015000 -1.322654 1.333333 1.333333
1.016000 -0.964901 0.901775 1.333333
1.017000 -0.608824 0.495272 1.038847
1.018000 -0.145565 0.023068 0.087972
1.019000 0.348535 -0.567477 -0.949146
1.020000 0.753877 -1.040960 -1.333333
1.021000 1.080715 -1.333333 -1.333333
1.022000 1.333333 -1.333333 -1.333333
1.023000 1.333333 -1.333333 -1.333333
1.024000 1.333333 -1.333333 -1.333333
1.025000 1.319281 -1.333333 -1.333333
1.026000 0.944925 -1.193680 -1.333333
1.027000 0.618507 -0.751389 -1.333333
1.028000 0.187992 -0.294850 -0.410950
1.029000 -0.339389 0.255532 0.644733
1.030000 -0.753843 0.747554 1.333333
1.031000 -1.092897 1.139905 1.333333
1.032000 -1.333333 1.333333 1.333333
1.033000 -1.333333 1.333333 1.333333
1.034000 -1.333333 1.333333 1.333333
1.035000 -1.299955 1.333333 1.333333
1.036000 -0.948057 0.923556 1.333333
1.037000 -0.614495 0.465655 1.019603
1.038000 -0.166614 -0.030166 0.084654
1.039000 0.361379 -0.562363 -0.993342
1.040000 0.741171 -1.083399 -1.333333
1.041000 1.123304 -1.333333 -1.333333
1.042000 1.333333 -1.333333 -1.333333
1.043000 1.333333 -1.333333 -1.333333
1.044000 1.333333 -1.333333 -1.333333
1.045000 1.333333 -1.333333 -1.333333
1.046000 1.016478 -1.130527 -1.333333
1.047000 0.658732 -0.730004 -1.314963
1.048000 0.201441 -0.226742 -0.383475
1.049000 -0.272526 0.353302 0.692067
1.050000 -0.689225 0.831178 1.333333
1.051000 -1.056955 1.227498 1.333333
1.052000 -1.333333 1.333333 1.333333
1.053000 -1.333333 1.333333 1.333333
1.054000 -1.333333 1.333333 1.333333
1.055000 -1.229062 1.333333 1.333333
1.056000 -0.888162 0.972019 1.333333
1.057000 -0.535689 0.529773 0.989810
1.058000 -0.125263 0.018265 0.064441
1.059000 0.366855 -0.579998 -0.989952
1.060000 0.778762 -1.057586 -1.333333
1.061000 1.102960 -1.333333 -1.333333
1.062000 1.333333 -1.333333 -1.333333
1.063000 1.333333 -1.333333 -1.333333
1.064000 1.333333 -1.333333 -1.333333
1.065000 1.308367 -1.333333 -1.333333
1.066000 0.970954 -1.130320 -1.333333
1.067000 0.620227 -0.696431 -1.277778
1.068000 0.238866 -0.172773 -0.334995
1.069000 -0.269592 0.405982 0.723645
1.070000 -0.715751 0.887433 1.333333
1.071000 -1.055932 1.240979 1.333333
1.072000 -1.333333 1.333333 1.333333
1.073000 -1.333333 1.333333 1.333333
1.074000 -1.333333 1.333333 1.333333
1.075000 -1.258943 1.333333 1.333333
1.076000 -0.931484 0.939803 1.333333
1.077000 -0.549759 0.530461 0.993942
1.078000 -0.075144 0.040357 0.050346
1.079000 0.409810 -0.525737 -1.011195
1.080000 0.828325 -1.025857 -1.333333
1.081000 1.156522 -1.333333 -1.333333
1.082000 1.333333 -1.333333 -1.333333
1.083000 1.333333 -1.333333 -1.333333
1.084000 1.333333 -1.333333 -1.333333
1.085000 1.333333 -1.333333 -1.333333
1.086000 0.986144 -1.093158 -1.333333
1.087000 0.608885 -0.685876 -1.226289
1.088000 0.162185 -0.221897 -0.307769
1.089000 -0.372117 0.328772 0.766553
1.090000 -0.783524 0.837904 1.333333
1.091000 -1.037817 1.249369 1.333333
1.092000 -1.319631 1.333333 1.333333
1.093000 -1.333333 1.333333 1.333333
1.094000 -1.333333 1.333333 1.333333
1.095000 -1.284225 1.333333 1.333333
1.096000 -0.885454 0.975022 1.333333
1.097000 -0.512734 0.526757 0.985852
1.098000 -0.090542 0.051220 0.063295
1.099000 0.359198 -0.561908 -0.972307
1.100000 0.775485 -1.070425 -1.333333
1.101000 1.128975 -1.333333 -1.333333
1.102000 1.333333 -1.333333 -1.333333
1.103000 1.333333 -1.333333 -1.333333
1.104000 1.333333 -1.333333 -1.333333
1.105000 1.291092 -1.333333 -1.333333
1.106000 0.939180 -1.147940 -1.333333
1.107000 0.589719 -0.676925 -1.217610
1.108000 0.155849 -0.204123 -0.290295
1.109000 -0.347468 0.350943 0.763824
1.110000 -0.816062 0.809079 1.333333
1.111000 -1.162571 1.149034 1.333333
1.112000 -1.333333 1.333333 1.333333
1.113000 -1.333333 1.333333 1.333333
1.114000 -1.333333 1.333333 1.333333
1.115000 -1.326113 1.333333 1.333333
1.116000 -0.970580 0.884373 1.333333
1.117000 -0.620708 0.432297 0.956878
1.118000 -0.151523 -0.088171 0.023622
1.119000 0.325310 -0.615972 -1.007810
1.120000 0.764708 -1.105954 -1.333333
1.121000 1.104015 -1.333333 -1.333333
1.122000 1.333333 -1.333333 -1.333333
1.123000 1.333333 -1.333333 -1.333333
1.124000 1.333333 -1.333333 -1.333333
1.125000 1.217964 -1.333333 -1.333333
1.126000 0.866457 -1.201177 -1.333333
1.127000 0.527626 -0.735483 -1.192195
1.128000 0.088396 -0.241058 -0.253135
1.129000 -0.382721 0.339176 0.747385
1.130000 -0.837964 0.752019 1.333333
1.131000 -1.152576 1.144719 1.333333
1.132000 -1.333333 1.333333 1.333333
1.133000 -1.333333 1.333333 1.333333
1.134000 -1.333333 1.333333 1.333333
1.135000 -1.276411 1.333333 1.333333
1.136000 -0.907169 0.893806 1.333333
1.137000 -0.535255 0.416097 0.901038
1.138000 -0.153112 -0.107225 -0.037147
1.139000 0.303508 -0.721580 -1.066949
1.140000 0.742083 -1.203280 -1.333333
1.141000 1.066852 -1.333333 -1.333333
1.142000 1.333333 -1.333333 -1.333333
1.143000 1.333333 -1.333333 -1.333333
1.144000 1.333333 -1.333333 -1.333333
1.145000 1.213965 -1.333333 -1.333333
1.146000 0.882832 -1.216274 -1.333333
1.147000 0.554456 -0.708336 -1.193274
1.148000 0.135095 -0.202660 -0.272348
1.149000 -0.404660 0.320667 0.804957
1.150000 -0.826034 0.819237 1.333333
1.151000 -1.171371 1.140659 1.333333
1.152000 -1.333333 1.333333 1.333333
1.153000 -1.333333 1.333333 1.333333
1.154000 -1.333333 1.333333 1.333333
1.155000 -1.329928 1.277252 1.333333
1.156000 -0.922080 0.804498 1.333333
1.157000 -0.541018 0.352701 0.829757
1.158000 -0.164562 -0.164982 -0.073042
1.159000 0.320265 -0.711748 -1.087515
1.160000 0.729059 -1.194826 -1.333333
1.161000 1.053103 -1.333333 -1.333333
1.162000 1.333333 -1.333333 -1.333333
1.163000 1.333333 -1.333333 -1.333333
1.164000 1.333333 -1.333333 -1.333333
1.165000 1.244531 -1.333333 -1.333333
1.166000 0.921775 -1.156627 -1.333333
1.167000 0.516923 -0.732411 -1.196621
1.168000 0.056944 -0.279506 -0.261090
1.169000 -0.445098 0.296244 0.768511
1.170000 -0.910740 0.754319 1.333333
1.171000 -1.248316 1.118534 1.333333
1.172000 -1.333333 1.333333 1.333333
1.173000 -1.333333 1.333333 1.333333
1.174000 -1.333333 1.333333 1.333333
1.175000 -1.307538 1.233629 1.333333
1.176000 -0.975109 0.783781 1.333333
1.177000 -0.555065 0.366075 0.849722
1.178000 -0.122985 -0.139420 -0.075631
1.179000 0.339738 -0.685151 -1.087502
1.180000 0.769020 -1.198891 -1.333333
1.181000 1.079887 -1.333333 -1.333333
1.182000 1.333333 -1.333333 -1.333333
1.183000 1.333333 -1.333333 -1.333333
1.184000 1.333333 -1.333333 -1.333333
1.185000 1.232099 -1.333333 -1.333333
1.186000 0.859764 -1.201423 -1.333333
1.187000 0.470204 -0.763514 -1.139453
1.188000 0.048359 -0.209027 -0.203650
1.189000 -0.418726 0.338417 0.824161
1.190000 -0.843963 0.832685 1.333333
1.191000 -1.181205 1.145510 1.333333
1.192000 -1.333333 1.333333 1.333333
1.193000 -1.333333 1.333333 1.333333
1.194000 -1.333333 1.333333 1.333333
1.195000 -1.293819 1.265919 1.333333
1.196000 -0.923222 0.799269 1.333333
1.197000 -0.558544 0.323415 0.822966
1.198000 -0.138094 -0.178797 -0.126906
1.199000 0.378463 -0.712909 -1.116659
1.200000 0.779834 -1.211161 -1.333333
1.201000 1.081061 -1.333333 -1.333333
1.202000 1.333333 -1.333333 -1.333333
1.203000 1.333333 -1.333333 -1.333333
1.204000 1.333333 -1.333333 -1.333333
1.205000 1.234236 -1.333333 -1.333333
1.206000 0.888410 -1.160004 -1.333333
1.207000 0.489424 -0.679850 -1.112067
1.208000 0.069827 -0.202672 -0.191504
1.209000 -0.410105 0.345238 0.811585
1.210000 -0.866322 0.830809 1.333333
1.211000 -1.176800 1.151278 1.333333
1.212000 -1.333333 1.333333 1.333333
1.213000 -1.333333 1.333333 1.333333
1.214000 -1.333333 1.333333 1.333333
1.215000 -1.328988 1.223881 1.333333
1.216000 -0.949568 0.784771 1.333333
1.217000 -0.524841 0.368598 0.810266
1.218000 -0.080001 -0.155899 -0.126223
1.219000 0.372498 -0.694651 -1.133404
1.220000 0.767795 -1.224443 -1.333333
1.221000 1.089737 -1.333333 -1.333333
1.222000 1.333333 -1.333333 -1.333333
1.223000 1.333333 -1.333333 -1.333333
1.224000 1.333333 -1.333333 -1.333333
1.225000 1.217169 -1.333333 -1.333333
1.226000 0.844531 -1.187245 -1.333333
1.227000 0.486290 -0.720114 -1.110586
1.228000 0.052561 -0.217626 -0.210773
1.229000 -0.446272 0.315441 0.827833
1.230000 -0.852930 0.822517 1.333333
1.231000 -1.186581 1.156798 1.333333
1.232000 -1.333333 1.333333 1.333333
1.233000 -1.333333 1.333333 1.333333
1.234000 -1.333333 1.333333 1.333333
1.235000 -1.333333 1.228799 1.333333
1.236000 -0.965336 0.776666 1.333333
1.237000 -0.501723 0.347547 0.785081
1.238000 -0.023719 -0.119929 -0.182974
1.239000 0.393889 -0.724527 -1.162813
1.240000 0.782523 -1.240739 -1.333333
1.241000 1.089966 -1.333333 -1.333333
1.242000 1.333333 -1.333333 -1.333333
1.243000 1.333333 -1.333333 -1.333333
1.244000 1.333333 -1.333333 -1.333333
1.245000 1.233524 -1.333333 -1.333333
1.246000 0.857950 -1.155035 -1.333333
1.247000 0.399532 -0.712386 -1.053690
1.248000 -0.000514 -0.178444 -0.102699
1.249000 -0.486517 0.332115 0.881892
1.250000 -0.867011 0.871032 1.333333
1.251000 -1.214509 1.166051 1.333333
1.252000 -1.333333 1.333333 1.333333
1.253000 -1.333333 1.333333 1.333333
1.254000 -1.333333 1.333333 1.333333
1.255000 -1.307320 1.228096 1.333333
1.256000 -0.916361 0.764925 1.333333
1.257000 -0.522152 0.321093 0.757122
1.258000 -0.117591 -0.222950 -0.178126
1.259000 0.369404 -0.773908 -1.197999
1.260000 0.819284 -1.226225 -1.333333
1.261000 1.121704 -1.333333 -1.333333
1.262000 1.333333 -1.333333 -1.333333
1.263000 1.333333 -1.333333 -1.333333
1.264000 1.333333 -1.333333 -1.333333
1.265000 1.215796 -1.333333 -1.333333
1.266000 0.854716 -1.183025 -1.333333
1.267000 0.470420 -0.706339 -1.101455
1.268000 0.040833 -0.181206 -0.130682
1.269000 -0.443239 0.370198 0.868120
1.270000 -0.930667 0.808871 1.333333
1.271000 -1.237905 1.178498 1.333333
1.272000 -1.333333 1.333333 1.333333
1.273000 -1.333333 1.333333 1.333333
1.274000 -1.333333 1.333333 1.333333
1.275000 -1.216792 1.255733 1.333333
1.276000 -0.888165 0.823529 1.333333
1.277000 -0.498023 0.324226 0.776442
1.278000 -0.087814 -0.194829 -0.189786
1.279000 0.411555 -0.719829 -1.170330
1.280000 0.821435 -1.207615 -1.333333
1.281000 1.113555 -1.333333 -1.333333
1.282000 1.333333 -1.333333 -1.333333
1.283000 1.333333 -1.333333 -1.333333
1.284000 1.333333 -1.333333 -1.333333
1.285000 1.201289 -1.333333 -1.333333
1.286000 0.848531 -1.147625 -1.333333
1.287000 0.449062 -0.676286 -1.052578
1.288000 -0.018327 -0.180709 -0.106278
1.289000 -0.473441 0.366472 0.934450
1.290000 -0.918608 0.863391 1.333333
1.291000 -1.240151 1.151067 1.333333
1.292000 -1.333333 1.333333 1.333333
1.293000 -1.333333 1.333333 1.333333
1.294000 -1.333333 1.333333 1.333333
1.295000 -1.257153 1.215417 1.333333
1.296000 -0.894659 0.762816 1.333333
1.297000 -0.510448 0.283172 0.733144
1.298000 -0.128901 -0.254566 -0.188900
1.299000 0.381673 -0.756278 -1.180404
1.300000 0.840275 -1.202711 -1.333333
1.301000 1.122856 -1.333333 -1.333333
1.302000 1.333333 -1.333333 -1.333333
1.303000 1.333333 -1.333333 -1.333333
1.304000 1.333333 -1.333333 -1.333333
1.305000 1.201933 -1.333333 -1.333333
1.306000 0.838070 -1.134477 -1.333333
1.307000 0.439282 -0.640991 -1.026040
1.308000 -0.014150 -0.158907 -0.044288
1.309000 -0.473781 0.411724 0.929678
1.310000 -0.896991 0.885002 1.333333
1.311000 -1.182868 1.203084 1.333333
1.312000 -1.333333 1.333333 1.333333
1.313000 -1.333333 1.333333 1.333333
1.314000 -1.333333 1.333333 1.333333
1.315000 -1.333333 1.133219 1.333333
1.316000 -0.972556 0.720229 1.333333
1.317000 -0.539881 0.236988 0.698950
1.318000 -0.077738 -0.278063 -0.261586
1.319000 0.404441 -0.764313 -1.234102
1.320000 0.836169 -1.260606 -1.333333
1.321000 1.147016 -1.333333 -1.333333
1.322000 1.333333 -1.333333 -1.333333
1.323000 1.333333 -1.333333 -1.333333
1.324000 1.333333 -1.333333 -1.333333
1.325000 1.244370 -1.333333 -1.333333
1.326000 0.869615 -1.121239 -1.333333
1.327000 0.418572 -0.674242 -1.006587
1.328000 -0.044058 -0.155350 -0.044228
1.329000 -0.502972 0.357093 0.933903
1.330000 -0.954238 0.840524 1.333333
1.331000 -1.257877 1.170519 1.333333
1.332000 -1.333333 1.333333 1.333333
1.333000 -1.333333 1.333333 1.333333
1.334000 -1.333333 1.333333 1.333333
1.335000 -1.284201 1.180904 1.333333
1.336000 -0.919899 0.745249 1.333333
1.337000 -0.495549 0.246313 0.677153
1.338000 -0.079984 -0.280067 -0.280624
1.339000 0.410833 -0.796428 -1.251226
1.340000 0.850625 -1.245935 -1.333333
1.341000 1.119595 -1.333333 -1.333333
1.342000 1.333333 -1.333333 -1.333333
1.343000 1.333333 -1.333333 -1.333333
1.344000 1.333333 -1.333333 -1.333333
1.345000 1.159698 -1.333333 -1.333333
1.346000 0.844683 -1.145061 -1.333333
1.347000 0.420445 -0.633085 -0.989165
1.348000 -0.030923 -0.115181 0.013189
1.349000 -0.462471 0.441486 0.977584
1.350000 -0.902224 0.913426 1.333333
1.351000 -1.214153 1.218919 1.333333
1.352000 -1.333333 1.333333 1.333333
1.353000 -1.333333 1.333333 1.333333
1.354000 -1.333333 1.333333 1.333333
1.355000 -1.271363 1.180395 1.333333
1.356000 -0.925272 0.717090 1.333333
1.357000 -0.515066 0.260503 0.685286
1.358000 -0.029686 -0.247512 -0.266685
1.359000 0.420976 -0.768488 -1.273521
1.360000 0.845595 -1.276954 -1.333333
1.361000 1.127724 -1.333333 -1.333333
1.362000 1.333333 -1.333333 -1.333333
1.363000 1.333333 -1.333333 -1.333333
1.364000 1.333333 -1.333333 -1.333333
1.365000 1.203959 -1.333333 -1.333333
1.366000 0.810675 -1.087947 -1.333333
1.367000 0.361398 -0.613403 -0.885224
1.368000 -0.074987 -0.084423 0.070023
1.369000 -0.549317 0.445927 1.045647
1.370000 -0.940048 0.937084 1.333333
1.371000 -1.233882 1.270834 1.333333
1.372000 -1.333333 1.333333 1.333333
1.373000 -1.333333 1.333333 1.333333
1.374000 -1.333333 1.333333 1.333333
1.375000 -1.224803 1.227095 1.333333
1.376000 -0.909197 0.803717 1.333333
1.377000 -0.539756 0.217299 0.707194
1.378000 -0.056176 -0.268548 -0.291435
1.379000 0.426990 -0.780986 -1.257166
1.380000 0.856428 -1.252838 -1.333333
1.381000 1.167846 -1.333333 -1.333333
1.382000 1.333333 -1.333333 -1.333333
1.383000 1.333333 -1.333333 -1.333333
1.384000 1.333333 -1.333333 -1.333333
1.385000 1.135024 -1.333333 -1.333333
1.386000 0.800142 -1.108287 -1.333333
1.387000 0.414475 -0.571473 -0.905316
1.388000 -0.025127 -0.039233 0.067277
1.389000 -0.525657 0.442498 1.032686
1.390000 -0.930058 0.940843 1.333333
1.391000 -1.204978 1.268008 1.333333
1.392000 -1.333333 1.333333 1.333333
1.393000 -1.333333 1.333333 1.333333
1.394000 -1.333333 1.333333 1.333333
1.395000 -1.230255 1.196224 1.333333
1.396000 -0.848710 0.769473 1.333333
1.397000 -0.459233 0.275850 0.655039
1.398000 -0.040356 -0.278486 -0.304307
1.399000 0.433482 -0.812127 -1.300690
1.400000 0.865726 -1.266009 -1.333333
1.401000 1.167168 -1.333333 -1.333333
1.402000 1.333333 -1.333333 -1.333333
1.403000 1.333333 -1.333333 -1.333333
1.404000 1.333333 -1.333333 -1.333333
1.405000 1.191202 -1.333333 -1.333333
1.406000 0.926090 -1.007423 -1.333333
1.407000 0.450922 -0.547781 -0.921517
1.408000 -0.052816 -0.054691 0.076879
1.409000 -0.527301 0.491283 1.048265
1.410000 -0.928357 0.975874 1.333333
1.411000 -1.235689 1.294766 1.333333
1.412000 -1.333333 1.333333 1.333333
1.413000 -1.333333 1.333333 1.333333
1.414000 -1.333333 1.333333 1.333333
1.415000 -1.235313 1.112118 1.333333
1.416000 -0.856224 0.738679 1.333333
1.417000 -0.422860 0.238794 0.606341
1.418000 0.006862 -0.292895 -0.366120
1.419000 0.448118 -0.813634 -1.333333
1.420000 0.910089 -1.289249 -1.333333
1.421000 1.173729 -1.333333 -1.333333
1.422000 1.333333 -1.333333 -1.333333
1.423000 1.333333 -1.333333 -1.333333
1.424000 1.333333 -1.333333 -1.333333
1.425000 1.096769 -1.333333 -1.333333
1.426000 0.790306 -1.086335 -1.333333
1.427000 0.391236 -0.570100 -0.884343
1.428000 -0.031932 -0.023231 0.040105
1.429000 -0.477390 0.475579 1.005927
1.430000 -0.946924 0.929233 1.333333
1.431000 -1.210222 1.304093 1.333333
1.432000 -1.333333 1.333333 1.333333
1.433000 -1.333333 1.333333 1.333333
1.434000 -1.333333 1.333333 1.333333
1.435000 -1.236696 1.134132 1.333333
1.436000 -0.872983 0.701964 1.333333
1.437000 -0.430264 0.211604 0.574587
1.438000 0.010906 -0.291393 -0.390355
1.439000 0.470914 -0.841721 -1.333333
1.440000 0.886538 -1.324406 -1.333333
1.441000 1.157391 -1.333333 -1.333333
1.442000 1.333333 -1.333333 -1.333333
1.443000 1.333333 -1.333333 -1.333333
1.444000 1.333333 -1.333333 -1.333333
1.445000 1.127476 -1.333333 -1.333333
1.446000 0.778331 -1.127347 -1.333333
1.447000 0.340675 -0.585043 -0.870826
1.448000 -0.130500 -0.093129 0.116829
1.449000 -0.577038 0.426576 1.045344
1.450000 -0.985611 0.919654 1.333333
1.451000 -1.282017 1.215195 1.333333
1.452000 -1.333333 1.333333 1.333333
1.453000 -1.333333 1.333333 1.333333
1.454000 -1.333333 1.333333 1.333333
1.455000 -1.225959 1.083667 1.333333
1.456000 -0.838292 0.695132 1.333333
1.457000 -0.370818 0.238398 0.554710
1.458000 0.047122 -0.316136 -0.422818
1.459000 0.475314 -0.855723 -1.333333
1.460000 0.872551 -1.333333 -1.333333
1.461000 1.154885 -1.333333 -1.333333
1.462000 1.333333 -1.333333 -1.333333
1.463000 1.333333 -1.333333 -1.333333
1.464000 1.315538 -1.333333 -1.333333
1.465000 1.111934 -1.333333 -1.333333
1.466000 0.749730 -1.110449 -1.333333
1.467000 0.331621 -0.610610 -0.869970
1.468000 -0.117380 -0.090445 0.090199
1.469000 -0.571455 0.433294 1.075481
1.470000 -1.009532 0.874971 1.333333
1.471000 -1.297009 1.219696 1.333333
1.472000 -1.333333 1.333333 1.333333
1.473000 -1.333333 1.333333 1.333333
1.474000 -1.333333 1.333333 1.333333
1.475000 -1.214101 1.091344 1.333333
1.476000 -0.873902 0.680227 1.333333
1.477000 -0.466519 0.147158 0.576934
1.478000 -0.004720 -0.355700 -0.446905
1.479000 0.463065 -0.899054 -1.333333
1.480000 0.875973 -1.333333 -1.333333
1.481000 1.177422 -1.333333 -1.333333
1.482000 1.333333 -1.333333 -1.333333
1.483000 1.333333 -1.333333 -1.333333
1.484000 1.333333 -1.333333 -1.333333
1.485000 1.141457 -1.333333 -1.333333
1.486000 0.824087 -1.084004 -1.333333
1.487000 0.345156 -0.595985 -0.885751
1.488000 -0.115601 -0.097318 0.084138
1.489000 -0.547645 0.430703 1.046960
1.490000 -1.007250 0.883969 1.333333
1.491000 -1.328874 1.175135 1.333333
1.492000 -1.333333 1.333333 1.333333
1.493000 -1.333333 1.333333 1.333333
1.494000 -1.333333 1.329213 1.333333
1.495000 -1.179187 1.051166 1.333333
1.496000 -0.828591 0.626278 1.333333
1.497000 -0.407661 0.116727 0.431675
1.498000 0.025553 -0.441655 -0.521752
1.499000 0.485221 -0.929371 -1.333333
1.500000 0.901556 -1.333333 -1.333333
1.501000 1.226753 -1.333333 -1.333333
1.502000 1.333333 -1.333333 -1.333333
1.503000 1.333333 -1.333333 -1.333333
1.504000 1.333333 -1.333333 -1.333333
1.505000 1.149019 -1.333333 -1.333333
1.506000 0.806922 -1.043817 -1.333333
1.507000 0.338897 -0.562049 -0.833624
1.508000 -0.080263 -0.003846 0.152395
1.509000 -0.543470 0.559037 1.161617
1.510000 -0.934377 1.055235 1.333333
1.511000 -1.204770 1.333333 1.333333
1.512000 -1.333333 1.333333 1.333333
1.513000 -1.333333 1.333333 1.333333
1.514000 -1.333333 1.333333 1.333333
1.515000 -1.119428 1.333333 1.333333
1.516000 -0.706183 1.080029 1.333333
1.517000 -0.226780 0.618187 0.790010
1.518000 0.194160 0.099948 -0.202198
1.519000 0.610638 -0.430194 -1.091012
1.520000 1.009048 -0.853506 -1.333333
1.521000 1.333333 -1.092597 -1.333333
1.522000 1.333333 -1.264149 -1.333333
1.523000 1.333333 -1.200112 -1.333333
1.524000 1.333333 -1.111880 -1.333333
1.525000 1.247159 -0.757391 -1.333333
1.526000 0.890134 -0.329108 -1.140760
1.527000 0.427882 0.215185 -0.148965
1.528000 -0.087340 0.723125 0.870942
1.529000 -0.566905 1.200845 1.333333
1.530000 -0.986575 1.333333 1.333333
1.531000 -1.252979 1.333333 1.333333
1.532000 -1.333333 1.333333 1.333333
1.533000 -1.333333 1.333333 1.333333
1.534000 -1.333333 1.333333 1.333333
1.535000 -1.227140 1.333333 1.333333
1.536000 -0.908529 0.892658 1.333333
1.537000 -0.475629 0.322961 0.716345
1.538000 -0.040643 -0.312856 -0.339122
1.539000 0.384278 -0.882887 -1.325952
1.540000 0.778186 -1.333333 -1.333333
1.541000 1.072676 -1.333333 -1.333333
1.542000 1.261641 -1.333333 -1.333333
1.543000 1.302700 -1.333333 -1.333333
1.544000 1.246358 -1.333333 -1.333333
1.545000 1.041609 -1.333333 -1.333333
1.546000 0.740189 -1.206941 -1.333333
1.547000 0.248755 -0.735311 -0.927125
1.548000 -0.233776 -0.212116 0.124360
1.549000 -0.694193 0.319603 1.073955
1.550000 -1.125158 0.734416 1.333333
1.551000 -1.333333 1.083158 1.333333
1.552000 -1.333333 1.301039 1.333333
1.553000 -1.333333 1.322988 1.333333
1.554000 -1.333333 1.230703 1.333333
1.555000 -1.194988 0.886493 1.333333
1.556000 -0.867923 0.500475 1.302175
1.557000 -0.407370 -0.003616 0.340199
1.558000 0.040989 -0.556357 -0.655211
1.559000 0.493900 -1.027835 -1.333333
1.560000 0.918369 -1.333333 -1.333333
1.561000 1.183680 -1.333333 -1.333333
1.562000 1.333333 -1.333333 -1.333333
1.563000 1.333333 -1.333333 -1.333333
1.564000 1.318107 -1.333333 -1.333333
1.565000 1.089605 -1.333333 -1.333333
1.566000 0.749160 -1.084762 -1.333333
1.567000 0.313056 -0.579387 -0.824560
1.568000 -0.135088 -0.009602 0.195912
1.569000 -0.637963 0.499985 1.222062
1.570000 -1.057564 0.971862 1.333333
1.571000 -1.310253 1.294179 1.333333
1.572000 -1.333333 1.333333 1.333333
1.573000 -1.333333 1.333333 1.333333
1.574000 -1.333333 1.333333 1.333333
1.575000 -1.165123 1.030801 1.333333
1.576000 -0.798866 0.637436 1.333333
1.577000 -0.379227 0.124626 0.449544
1.578000 0.024230 -0.448061 -0.552947
1.579000 0.506921 -0.941045 -1.333333
1.580000 0.888793 -1.333333 -1.333333
1.581000 1.208301 -1.333333 -1.333333
1.582000 1.333333 -1.333333 -1.333333
1.583000 1.333333 -1.333333 -1.333333
1.584000 1.333333 -1.333333 -1.333333
1.585000 1.121677 -1.333333 -1.333333
1.586000 0.738499 -1.056988 -1.333333
1.587000 0.310489 -0.499321 -0.772413
1.588000 -0.109408 0.056428 0.252826
1.589000 -0.599253 0.566724 1.214863
1.590000 -1.008883 0.998757 1.333333
1.591000 -1.295620 1.307858 1.333333
1.592000 -1.333333 1.333333 1.333333
1.593000 -1.333333 1.333333 1.333333
1.594000 -1.333333 1.333333 1.333333
1.595000 -1.143690 1.007017 1.333333
1.596000 -0.870095 0.576269 1.333333
1.597000 -0.401728 0.072983 0.420444
1.598000 0.072512 -0.461432 -0.602956
1.599000 0.585407 -0.915469 -1.333333
1.600000 0.985301 -1.333333 -1.333333
1.601000 1.283311 -1.333333 -1.333333
1.602000 1.333333 -1.333333 -1.333333
1.603000 1.333333 -1.333333 -1.333333
1.604000 1.333333 -1.333333 -1.333333
1.605000 1.090846 -1.333333 -1.333333
1.606000 0.760249 -0.984638 -1.333333
1.607000 0.311489 -0.474295 -0.724161
1.608000 -0.144079 0.074995 0.262362
1.609000 -0.600304 0.551671 1.212005
1.610000 -1.025918 0.995115 1.333333
1.611000 -1.333333 1.298771 1.333333
1.612000 -1.333333 1.333333 1.333333
1.613000 -1.333333 1.333333 1.333333
1.614000 -1.333333 1.306777 1.333333
1.615000 -1.198179 0.987078 1.333333
1.616000 -0.803640 0.629966 1.333333
1.617000 -0.368343 0.095148 0.406307
1.618000 0.116783 -0.434865 -0.622995
1.619000 0.585308 -0.929529 -1.333333
1.620000 0.976552 -1.333333 -1.333333
1.621000 1.281461 -1.333333 -1.333333
1.622000 1.333333 -1.333333 -1.333333
1.623000 1.333333 -1.333333 -1.333333
1.624000 1.333333 -1.333333 -1.333333
1.625000 1.076248 -1.333333 -1.333333
1.626000 0.748980 -1.000135 -1.333333
1.627000 0.328724 -0.461260 -0.743376
1.628000 -0.124574 0.075782 0.297481
1.629000 -0.614168 0.568718 1.226620
1.630000 -1.000113 1.010678 1.333333
1.631000 -1.316737 1.322935 1.333333
1.632000 -1.333333 1.333333 1.333333
1.633000 -1.333333 1.333333 1.333333
1.634000 -1.333333 1.333333 1.333333
1.635000 -1.108176 1.022419 1.333333
1.636000 -0.772182 0.650441 1.333333
1.637000 -0.355368 0.114695 0.406028
1.638000 0.139785 -0.434999 -0.626087
1.639000 0.578509 -0.929313 -1.333333
1.640000 0.982671 -1.333333 -1.333333
1.641000 1.283808 -1.333333 -1.333333
1.642000 1.333333 -1.333333 -1.333333
1.643000 1.333333 -1.333333 -1.333333
1.644000 1.333333 -1.333333 -1.333333
1.645000 1.055540 -1.333333 -1.333333
1.646000 0.766614 -0.937470 -1.333333
1.647000 0.336601 -0.458801 -0.710968
1.648000 -0.158383 0.069611 0.291523
1.649000 -0.695740 0.499848 1.250369
1.650000 -1.058980 0.969475 1.333333
1.651000 -1.315968 1.333333 1.333333
1.652000 -1.333333 1.333333 1.333333
1.653000 -1.333333 1.333333 1.333333
1.654000 -1.333333 1.333333 1.333333
1.655000 -1.093780 1.016189 1.333333
1.656000 -0.768005 0.607145 1.287008
1.657000 -0.280847 0.114341 0.356809
1.658000 0.178175 -0.420090 -0.683999
1.659000 0.617194 -0.940374 -1.333333
1.660000 1.007462 -1.333333 -1.333333
1.661000 1.321588 -1.333333 -1.333333
1.662000 1.333333 -1.333333 -1.333333
1.663000 1.333333 -1.333333 -1.333333
1.664000 1.333333 -1.333333 -1.333333
1.665000 1.023534 -1.333333 -1.333333
1.666000 0.763417 -0.978370 -1.333333
1.667000 0.332854 -0.431793 -0.719435
1.668000 -0.116345 0.107925 0.302530
1.669000 -0.593341 0.606884 1.254945
1.670000 -1.006432 1.032643 1.333333
1.671000 -1.265560 1.333333 1.333333
1.672000 -1.333333 1.333333 1.333333
1.673000 -1.333333 1.333333 1.333333
1.674000 -1.333333 1.333333 1.333333
1.675000 -1.093271 1.018859 1.333333
1.676000 -0.756919 0.623590 1.317747
1.677000 -0.344781 0.077870 0.347756
1.678000 0.118061 -0.479823 -0.637903
1.679000 0.577205 -0.960111 -1.333333
1.680000 1.012006 -1.333333 -1.333333
1.681000 1.333333 -1.333333 -1.333333
1.682000 1.333333 -1.333333 -1.333333
1.683000 1.333333 -1.333333 -1.333333
1.684000 1.333333 -1.333333 -1.333333
1.685000 1.098799 -1.299045 -1.333333
1.686000 0.790728 -0.882830 -1.333333
1.687000 0.369301 -0.361937 -0.653147
1.688000 -0.111055 0.180800 0.346867
1.689000 -0.580862 0.663031 1.270150
1.690000 -0.973495 1.064692 1.333333
1.691000 -1.304186 1.333333 1.333333
1.692000 -1.333333 1.333333 1.333333
1.693000 -1.333333 1.333333 1.333333
1.694000 -1.333333 1.333333 1.333333
1.695000 -1.045839 0.994530 1.333333
1.696000 -0.704625 0.631250 1.255009
1.697000 -0.250834 0.139384 0.343015
1.698000 0.229736 -0.389808 -0.699955
1.699000 0.661548 -0.923697 -1.333333
1.700000 1.032806 -1.333333 -1.333333
1.701000 1.333333 -1.333333 -1.333333
1.702000 1.333333 -1.333333 -1.333333
1.703000 1.333333 -1.333333 -1.333333
1.704000 1.333333 -1.333333 -1.333333
1.705000 1.070371 -1.282946 -1.333333
1.706000 0.740168 -0.921937 -1.333333
1.707000 0.316608 -0.400363 -0.669292
1.708000 -0.115405 0.184046 0.357912
1.709000 -0.529211 0.693463 1.291879
1.710000 -0.922447 1.153599 1.333333
1.711000 -1.238041 1.333333 1.333333
1.712000 -1.333333 1.333333 1.333333
1.713000 -1.333333 1.333333 1.333333
1.714000 -1.333333 1.333333 1.333333
1.715000 -1.002135 1.066836 1.333333
1.716000 -0.646531 0.655804 1.251354
1.717000 -0.195065 0.174828 0.303081
1.718000 0.258748 -0.388227 -0.716622
1.719000 0.733638 -0.856319 -1.333333
1.720000 1.130249 -1.271793 -1.333333
1.721000 1.333333 -1.333333 -1.333333
1.722000 1.333333 -1.333333 -1.333333
1.723000 1.333333 -1.333333 -1.333333
1.724000 1.333333 -1.333333 -1.333333
1.725000 1.184666 -1.199600 -1.333333
1.726000 0.817671 -0.828126 -1.333333
1.727000 0.324742 -0.382918 -0.650038
1.728000 -0.119436 0.180637 0.361289
1.729000 -0.596723 0.683038 1.318113
1.730000 -0.992689 1.109455 1.333333
1.731000 -1.279774 1.333333 1.333333
1.732000 -1.333333 1.333333 1.333333
1.733000 -1.333333 1.333333 1.333333
1.734000 -1.264721 1.333333 1.333333
1.735000 -0.980571 1.052761 1.333333
1.736000 -0.681531 0.674353 1.283793
1.737000 -0.222757 0.164335 0.350122
1.738000 0.284603 -0.366198 -0.722851
1.739000 0.757034 -0.860556 -1.333333
1.740000 1.114341 -1.315035 -1.333333
1.741000 1.333333 -1.333333 -1.333333
1.742000 1.333333 -1.333333 -1.333333
1.743000 1.333333 -1.333333 -1.333333
1.744000 1.333333 -1.333333 -1.333333
1.745000 1.159676 -1.161630 -1.333333
1.746000 0.790828 -0.802345 -1.333333
1.747000 0.324441 -0.322772 -0.609518
1.748000 -0.129293 0.245286 0.408816
1.749000 -0.549876 0.733996 1.333333
1.750000 -0.988807 1.149263 1.333333
1.751000 -1.305697 1.333333 1.333333
1.752000 -1.333333 1.333333 1.333333
1.753000 -1.333333 1.333333 1.333333
1.754000 -1.333333 1.333333 1.333333
1.755000 -0.975993 1.086117 1.333333
1.756000 -0.635438 0.684472 1.287134
1.757000 -0.209625 0.160953 0.311078
1.758000 0.247770 -0.405493 -0.714836
1.759000 0.717606 -0.893305 -1.333333
1.760000 1.103923 -1.323130 -1.333333
1.761000 1.333333 -1.333333 -1.333333
1.762000 1.333333 -1.333333 -1.333333
1.763000 1.333333 -1.333333 -1.333333
1.764000 1.333333 -1.333333 -1.333333
1.765000 1.055143 -1.238077 -1.333333
1.766000 0.702076 -0.867351 -1.333333
1.767000 0.291007 -0.355444 -0.619653
1.768000 -0.146968 0.216356 0.445358
1.769000 -0.581587 0.755732 1.333333
1.770000 -0.983272 1.158737 1.333333
1.771000 -1.303000 1.333333 1.333333
1.772000 -1.333333 1.333333 1.333333
1.773000 -1.333333 1.333333 1.333333
1.774000 -1.313941 1.333333 1.333333
1.775000 -1.002515 1.041788 1.333333
1.776000 -0.675686 0.626779 1.226661
1.777000 -0.255740 0.091603 0.298852
1.778000 0.214201 -0.477061 -0.763994
1.779000 0.664521 -0.966781 -1.333333
1.780000 1.048991 -1.333333 -1.333333
1.781000 1.329536 -1.333333 -1.333333
1.782000 1.333333 -1.333333 -1.333333
1.783000 1.333333 -1.333333 -1.333333
1.784000 1.333333 -1.333333 -1.333333
1.785000 1.047731 -1.277928 -1.333333
1.786000 0.751003 -0.835154 -1.333333
1.787000 0.249678 -0.373008 -0.560304
1.788000 -0.241455 0.183472 0.474366
1.789000 -0.662575 0.674193 1.333333
1.790000 -1.082669 1.108430 1.333333
1.791000 -1.333333 1.333333 1.333333
1.792000 -1.333333 1.333333 1.333333
1.793000 -1.333333 1.333333 1.333333
1.794000 -1.333333 1.333333 1.333333
1.795000 -1.057712 0.970740 1.333333
1.796000 -0.727239 0.540637 1.211212
1.797000 -0.254405 0.047930 0.236282
1.798000 0.245597 -0.509038 -0.812908
1.799000 0.691706 -0.982124 -1.333333
1.800000 1.039853 -1.333333 -1.333333
1.801000 1.296930 -1.333333 -1.333333
1.802000 1.333333 -1.333333 -1.333333
1.803000 1.333333 -1.333333 -1.333333
1.804000 1.333333 -1.333333 -1.333333
1.805000 1.002161 -1.285835 -1.333333
1.806000 0.661058 -0.906419 -1.333333
1.807000 0.246206 -0.374603 -0.592879
1.808000 -0.218845 0.161239 0.467247
1.809000 -0.697318 0.655970 1.333333
1.810000 -1.069082 1.059344 1.333333
1.811000 -1.333333 1.333333 1.333333
1.812000 -1.333333 1.333333 1.333333
1.813000 -1.333333 1.333333 1.333333
1.814000 -1.333333 1.313741 1.333333
1.815000 -1.046856 0.918709 1.333333
1.816000 -0.725387 0.503929 1.166820
1.817000 -0.328658 -0.011301 0.245151
1.818000 0.147237 -0.588886 -0.770200
1.819000 0.593032 -1.058059 -1.333333
1.820000 0.947011 -1.333333 -1.333333
1.821000 1.307394 -1.333333 -1.333333
1.822000 1.333333 -1.333333 -1.333333
1.823000 1.333333 -1.333333 -1.333333
1.824000 1.328624 -1.333333 -1.333333
1.825000 0.982207 -1.315106 -1.333333
1.826000 0.627250 -0.887771 -1.333333
1.827000 0.239109 -0.394207 -0.564853
1.828000 -0.221375 0.202922 0.477330
1.829000 -0.680422 0.668353 1.333333
1.830000 -1.062426 1.074892 1.333333
1.831000 -1.333333 1.333333 1.333333
1.832000 -1.333333 1.333333 1.333333
1.833000 -1.333333 1.333333 1.333333
1.834000 -1.333333 1.319183 1.333333
1.835000 -1.077580 0.907691 1.333333
1.836000 -0.681983 0.548502 1.151167
1.837000 -0.207639 0.041702 0.204275
1.838000 0.244673 -0.531305 -0.867042
1.839000 0.660140 -1.042745 -1.333333
1.840000 1.032962 -1.333333 -1.333333
1.841000 1.315519 -1.333333 -1.333333
1.842000 1.333333 -1.333333 -1.333333
1.843000 1.333333 -1.333333 -1.333333
1.844000 1.304281 -1.333333 -1.333333
1.845000 0.960080 -1.293450 -1.333333
1.846000 0.583005 -0.940683 -1.333333
1.847000 0.162961 -0.420087 -0.538147
1.848000 -0.328363 0.124508 0.534381
1.849000 -0.742137 0.641248 1.333333
1.850000 -1.107752 1.070785 1.333333
1.851000 -1.333333 1.333333 1.333333
1.852000 -1.333333 1.333333 1.333333
1.853000 -1.333333 1.333333 1.333333
1.854000 -1.332574 1.333333 1.333333
1.855000 -0.989820 0.953556 1.333333
1.856000 -0.672826 0.521364 1.143483
1.857000 -0.247767 0.020449 0.189187
1.858000 0.244568 -0.583084 -0.860927
1.859000 0.666924 -1.075436 -1.333333
1.860000 1.019917 -1.333333 -1.333333
1.861000 1.333333 -1.333333 -1.333333
1.862000 1.333333 -1.333333 -1.333333
1.863000 1.333333 -1.333333 -1.333333
1.864000 1.316110 -1.333333 -1.333333
1.865000 1.012505 -1.281932 -1.333333
1.866000 0.610258 -0.894620 -1.333333
1.867000 0.176165 -0.416764 -0.524894
1.868000 -0.285490 0.160533 0.506248
1.869000 -0.729166 0.669544 1.333333
1.870000 -1.103632 1.059579 1.333333
1.871000 -1.333333 1.333333 1.333333
1.872000 -1.333333 1.333333 1.333333
1.873000 -1.333333 1.333333 1.333333
1.874000 -1.333333 1.333333 1.333333
1.875000 -1.027996 0.895216 1.333333
1.876000 -0.723435 0.477374 1.114168
1.877000 -0.269793 -0.048918 0.176964
1.878000 0.233368 -0.587722 -0.873420
1.879000 0.683159 -1.066006 -1.333333
1.880000 1.012416 -1.333333 -1.333333
1.881000 1.296306 -1.333333 -1.333333
1.882000 1.333333 -1.333333 -1.333333
1.883000 1.333333 -1.333333 -1.333333
1.884000 1.325854 -1.333333 -1.333333
1.885000 0.966939 -1.266451 -1.333333
1.886000 0.604372 -0.886579 -1.333333
1.887000 0.191744 -0.375589 -0.516485
1.888000 -0.268928 0.226197 0.538843
1.889000 -0.733592 0.681052 1.333333
1.890000 -1.143369 1.060353 1.333333
1.891000 -1.333333 1.333333 1.333333
1.892000 -1.333333 1.333333 1.333333
1.893000 -1.333333 1.333333 1.333333
1.894000 -1.328344 1.333333 1.333333
1.895000 -1.035256 0.884714 1.333333
1.896000 -0.694475 0.461771 1.109331
1.897000 -0.261202 -0.006378 0.176237
1.898000 0.241319 -0.574913 -0.865133
1.899000 0.637959 -1.097657 -1.333333
1.900000 1.063058 -1.333333 -1.333333
1.901000 1.333333 -1.333333 -1.333333
1.902000 1.333333 -1.333333 -1.333333
1.903000 1.333333 -1.333333 -1.333333
1.904000 1.322740 -1.333333 -1.333333
1.905000 0.950730 -1.268388 -1.333333
1.906000 0.623083 -0.826815 -1.333333
1.907000 0.194797 -0.347404 -0.479894
1.908000 -0.337064 0.184096 0.590443
1.909000 -0.753064 0.691854 1.333333
1.910000 -1.155149 1.066671 1.333333
1.911000 -1.333333 1.333333 1.333333
1.912000 -1.333333 1.333333 1.333333
1.913000 -1.333333 1.333333 1.333333
1.914000 -1.333333 1.288351 1.333333
1.915000 -1.046072 0.842359 1.333333
1.916000 -0.686120 0.485146 1.086714
1.917000 -0.226114 -0.022009 0.168197
1.918000 0.277479 -0.549201 -0.892829
1.919000 0.693182 -1.062584 -1.333333
1.920000 1.024515 -1.333333 -1.333333
1.921000 1.331216 -1.333333 -1.333333
1.922000 1.333333 -1.333333 -1.333333
1.923000 1.333333 -1.333333 -1.333333
1.924000 1.302698 -1.333333 -1.333333
1.925000 0.938468 -1.244495 -1.333333
1.926000 0.580341 -0.846388 -1.333333
1.927000 0.168316 -0.343193 -0.442584
1.928000 -0.336738 0.214448 0.594101
1.929000 -0.749490 0.712034 1.333333
1.930000 -1.098729 1.115804 1.333333
1.931000 -1.333333 1.333333 1.333333
1.932000 -1.333333 1.333333 1.333333
1.933000 -1.333333 1.333333 1.333333
1.934000 -1.318328 1.333333 1.333333
1.935000 -0.968728 0.956411 1.333333
1.936000 -0.620352 0.507896 1.073644
1.937000 -0.210870 -0.008243 0.143187
1.938000 0.229541 -0.611870 -0.904180
1.939000 0.677275 -1.121457 -1.333333
1.940000 1.051460 -1.333333 -1.333333
1.941000 1.333333 -1.333333 -1.333333
1.942000 1.333333 -1.333333 -1.333333
1.943000 1.333333 -1.333333 -1.333333
1.944000 1.275626 -1.333333 -1.333333
1.945000 0.932159 -1.285628 -1.333333
1.946000 0.586860 -0.864264 -1.333333
1.947000 0.149877 -0.371838 -0.471143
1.948000 -0.328583 0.209785 0.614430
1.949000 -0.746920 0.722861 1.333333
1.950000 -1.105451 1.101766 1.333333
1.951000 -1.333333 1.333333 1.333333
1.952000 -1.333333 1.333333 1.333333
1.953000 -1.333333 1.333333 1.333333
1.954000 -1.333333 1.316803 1.333333
1.955000 -0.994178 0.876868 1.333333
1.956000 -0.662095 0.441670 1.037653
1.957000 -0.211796 -0.052654 0.097190
1.958000 0.255615 -0.646510 -0.959685
1.959000 0.693383 -1.106342 -1.333333
1.960000 1.019945 -1.333333 -1.333333
1.961000 1.325657 -1.333333 -1.333333
1.962000 1.333333 -1.333333 -1.333333
1.963000 1.333333 -1.333333 -1.333333
1.964000 1.241862 -1.333333 -1.333333
1.965000 0.915855 -1.266512 -1.333333
1.966000 0.583643 -0.818037 -1.333333
1.967000 0.162517 -0.342251 -0.418411
1.968000 -0.330738 0.267106 0.639442
1.969000 -0.699481 0.784663 1.333333
1.970000 -1.047419 1.141491 1.333333
1.971000 -1.333333 1.333333 1.333333
1.972000 -1.333333 1.333333 1.333333
1.973000 -1.333333 1.333333 1.333333
1.974000 -1.333333 1.271298 1.333333
1.975000 -1.016803 0.837897 1.333333
1.976000 -0.649108 0.404722 0.991998
1.977000 -0.238257 -0.106270 0.082810
1.978000 0.236633 -0.648860 -0.970431
1.979000 0.679053 -1.147341 -1.333333
1.980000 1.048220 -1.333333 -1.333333
1.981000 1.333333 -1.333333 -1.333333
1.982000 1.333333 -1.333333 -1.333333
1.983000 1.333333 -1.333333 -1.333333
1.984000 1.313815 -1.333333 -1.333333
1.985000 0.913370 -1.249096 -1.333333
1.986000 0.553535 -0.844709 -1.301427
1.987000 0.121920 -0.319645 -0.376123
1.988000 -0.386241 0.218967 0.694082
1.989000 -0.844644 0.673687 1.333333
1.990000 -1.139621 1.113980 1.333333
1.991000 -1.333333 1.333333 1.333333
1.992000 -1.333333 1.333333 1.333333
1.993000 -1.333333 1.333333 1.333333
1.994000 -1.307704 1.310003 1.333333
1.995000 -0.989705 0.847272 1.333333
1.996000 -0.583464 0.442715 0.986228
1.997000 -0.154403 -0.048525 0.025941
1.998000 0.293420 -0.668769 -0.982499
1.999000 0.713365 -1.149564 -1.333333
2.000000 1.043605 -1.333333 -1.333333
2.001000 1.330621 -1.333333 -1.333333
2.002000 1.333333 -1.333333 -1.333333
2.003000 1.333333 -1.333333 -1.333333
2.004000 1.239894 -1.333333 -1.333333
2.005000 0.938240 -1.235090 -1.333333
2.006000 0.562077 -0.777507 -1.291123
2.007000 0.123018 -0.315760 -0.348400
2.008000 -0.394441 0.222639 0.672828
2.009000 -0.792247 0.751163 1.333333
2.010000 -1.127326 1.117867 1.333333
2.011000 -1.333333 1.333333 1.333333
2.012000 -1.333333 1.333333 1.333333
2.013000 -1.333333 1.333333 1.333333
2.014000 -1.333333 1.272138 1.333333
2.015000 -0.983378 0.838785 1.333333
2.016000 -0.586040 0.431646 0.954027
2.017000 -0.155769 -0.079451 0.033271
2.018000 0.327112 -0.643911 -1.045002
2.019000 0.772243 -1.118774 -1.333333
2.020000 1.090510 -1.333333 -1.333333
2.021000 1.333333 -1.333333 -1.333333
2.022000 1.333333 -1.333333 -1.333333
2.023000 1.333333 -1.333333 -1.333333
2.024000 1.283450 -1.333333 -1.333333
2.025000 0.876526 -1.231367 -1.333333
2.026000 0.536820 -0.783729 -1.233065
2.027000 0.106309 -0.262466 -0.309234
2.028000 -0.401949 0.296664 0.758700
2.029000 -0.819153 0.783669 1.333333
2.030000 -1.182010 1.147584 1.333333
2.031000 -1.333333 1.333333 1.333333
2.032000 -1.333333 1.333333 1.333333
2.033000 -1.333333 1.333333 1.333333
2.034000 -1.333333 1.295883 1.333333
2.035000 -0.972752 0.868368 1.333333
2.036000 -0.610501 0.394065 0.965801
2.037000 -0.223580 -0.108545 0.036688
2.038000 0.284421 -0.674523 -0.999373
2.039000 0.752836 -1.120578 -1.333333
2.040000 1.080003 -1.333333 -1.333333
2.041000 1.333333 -1.333333 -1.333333
2.042000 1.333333 -1.333333 -1.333333
2.043000 1.333333 -1.333333 -1.333333
2.044000 1.260314 -1.333333 -1.333333
2.045000 0.877219 -1.201457 -1.333333
2.046000 0.517875 -0.757355 -1.223318
2.047000 0.116481 -0.255159 -0.322181
2.048000 -0.368279 0.287905 0.731472
2.049000 -0.820391 0.809442 1.333333
2.050000 -1.161800 1.166145 1.333333
2.051000 -1.333333 1.333333 1.333333
2.052000 -1.333333 1.333333 1.333333
2.053000 -1.333333 1.333333 1.333333
2.054000 -1.333333 1.293750 1.333333
2.055000 -0.977268 0.840943 1.333333
2.056000 -0.561235 0.456347 0.923418
2.057000 -0.125664 -0.059934 0.006246
2.058000 0.353154 -0.659043 -1.059075
2.059000 0.796807 -1.127489 -1.333333
2.060000 1.101437 -1.333333 -1.333333
2.061000 1.333333 -1.333333 -1.333333
2.062000 1.333333 -1.333333 -1.333333
2.063000 1.333333 -1.333333 -1.333333
2.064000 1.241445 -1.333333 -1.333333
2.065000 0.906196 -1.177407 -1.333333
2.066000 0.567933 -0.730446 -1.240273
2.067000 0.108834 -0.262663 -0.295014
2.068000 -0.380964 0.300935 0.735013
2.069000 -0.777465 0.800249 1.333333
2.070000 -1.134967 1.193624 1.333333
2.071000 -1.333333 1.333333 1.333333
2.072000 -1.333333 1.333333 1.333333
2.073000 -1.333333 1.333333 1.333333
2.074000 -1.333333 1.277092 1.333333
2.075000 -0.974067 0.853876 1.333333
2.076000 -0.514195 0.459991 0.931842
2.077000 -0.120465 -0.086145 -0.031163
2.078000 0.381375 -0.655676 -1.083026
2.079000 0.804873 -1.151253 -1.333333
2.080000 1.099032 -1.333333 -1.333333
2.081000 1.333333 -1.333333 -1.333333
2.082000 1.333333 -1.333333 -1.333333
2.083000 1.333333 -1.333333 -1.333333
2.084000 1.251124 -1.333333 -1.333333
2.085000 0.902077 -1.205530 -1.333333
2.086000 0.559355 -0.745944 -1.232656
2.087000 0.085695 -0.271154 -0.292306
2.088000 -0.416256 0.278131 0.771991
2.089000 -0.818172 0.810506 1.333333
2.090000 -1.129007 1.152626 1.333333
2.091000 -1.333333 1.333333 1.333333
2.092000 -1.333333 1.333333 1.333333
2.093000 -1.333333 1.333333 1.333333
2.094000 -1.282173 1.294021 1.333333
2.095000 -0.912680 0.840205 1.333333
2.096000 -0.534752 0.383783 0.840616
2.097000 -0.123783 -0.148953 -0.081898
2.098000 0.307878 -0.752039 -1.111514
2.099000 0.735664 -1.228643 -1.333333
2.100000 1.056201 -1.333333 -1.333333
2.101000 1.333333 -1.333333 -1.333333
2.102000 1.333333 -1.333333 -1.333333
2.103000 1.319279 -1.333333 -1.333333
2.104000 1.238836 -1.333333 -1.333333
2.105000 0.909285 -1.204735 -1.333333
2.106000 0.511596 -0.779103 -1.229205
2.107000 0.085577 -0.291123 -0.282619
2.108000 -0.422832 0.282454 0.749725
2.109000 -0.840781 0.774086 1.333333
2.110000 -1.172386 1.109903 1.333333
2.111000 -1.333333 1.333333 1.333333
2.112000 -1.333333 1.333333 1.333333
2.113000 -1.333333 1.333333 1.333333
2.114000 -1.329515 1.215161 1.333333
2.115000 -0.990513 0.797041 1.333333
2.116000 -0.623171 0.325336 0.881773
2.117000 -0.157610 -0.185694 -0.108146
2.118000 0.371655 -0.734772 -1.144733
2.119000 0.811444 -1.218953 -1.333333
2.120000 1.064710 -1.333333 -1.333333
2.121000 1.333333 -1.333333 -1.333333
2.122000 1.333333 -1.333333 -1.333333
2.123000 1.333333 -1.333333 -1.333333
2.124000 1.275786 -1.333333 -1.333333
2.125000 0.923185 -1.147971 -1.333333
2.126000 0.496737 -0.735983 -1.155170
2.127000 0.045572 -0.256709 -0.249287
2.128000 -0.426918 0.277433 0.773015
2.129000 -0.845349 0.789294 1.333333
2.130000 -1.141957 1.143385 1.333333
2.131000 -1.333333 1.333333 1.333333
2.132000 -1.333333 1.333333 1.333333
2.133000 -1.333333 1.333333 1.333333
2.134000 -1.333333 1.205797 1.333333
2.135000 -0.974788 0.760780 1.333333
2.136000 -0.571182 0.321991 0.819573
2.137000 -0.144517 -0.187456 -0.122483
2.138000 0.352318 -0.724760 -1.115508
2.139000 0.778331 -1.198967 -1.333333
2.140000 1.090963 -1.333333 -1.333333
2.141000 1.333333 -1.333333 -1.333333
2.142000 1.333333 -1.333333 -1.333333
2.143000 1.333333 -1.333333 -1.333333
2.144000 1.257266 -1.333333 -1.333333
2.145000 0.874383 -1.212940 -1.333333
2.146000 0.410246 -0.770959 -1.139799
2.147000 -0.008354 -0.292879 -0.204296
2.148000 -0.448843 0.299386 0.782396
2.149000 -0.830442 0.816152 1.333333
2.150000 -1.172710 1.151275 1.333333
2.151000 -1.333333 1.333333 1.333333
2.152000 -1.333333 1.333333 1.333333
2.153000 -1.333333 1.333333 1.333333
2.154000 -1.304569 1.174194 1.333333
2.155000 -0.938726 0.730458 1.333333
2.156000 -0.568382 0.268929 0.755511
2.157000 -0.090035 -0.248012 -0.203233
2.158000 0.401794 -0.769882 -1.247662
2.159000 0.856555 -1.236346 -1.333333
2.160000 1.125522 -1.333333 -1.333333
2.161000 1.333333 -1.333333 -1.333333
2.162000 1.333333 -1.333333 -1.333333
2.163000 1.333333 -1.333333 -1.333333
2.164000 1.244061 -1.333333 -1.333333
2.165000 0.898231 -1.219678 -1.333333
2.166000 0.538154 -0.738025 -1.193617
2.167000 0.141872 -0.172134 -0.249274
2.168000 -0.367705 0.384809 0.819381
2.169000 -0.830078 0.844540 1.333333
2.170000 -1.130913 1.186515 1.333333
2.171000 -1.333333 1.333333 1.333333
2.172000 -1.333333 1.333333 1.333333
2.173000 -1.333333 1.333333 1.333333
2.174000 -1.271733 1.315718 1.333333
2.175000 -0.885647 0.912166 1.333333
2.176000 -0.526447 0.448644 0.916716
2.177000 -0.056752 0.019555 0.000085
2.178000 0.429047 -0.509730 -0.972094
2.179000 0.888146 -0.917967 -1.333333
2.180000 1.198435 -1.209971 -1.333333
2.181000 1.333333 -1.333333 -1.333333
2.182000 1.333333 -1.333333 -1.333333
2.183000 1.333333 -1.333333 -1.333333
2.184000 1.322668 -1.103979 -1.333333
2.185000 0.988621 -0.638058 -1.333333
2.186000 0.616688 -0.114373 -0.675944
2.187000 0.216316 0.412730 0.275007
2.188000 -0.267605 0.975513 1.301106
2.189000 -0.701959 1.333333 1.333333
2.190000 -1.057870 1.333333 1.333333
2.191000 -1.333333 1.333333 1.333333
2.192000 -1.333333 1.333333 1.333333
2.193000 -1.333333 1.333333 1.333333
2.194000 -1.220758 1.333333 1.333333
2.195000 -0.858577 1.333333 1.333333
2.196000 -0.508787 0.895025 1.331369
2.197000 -0.117874 0.275195 0.339154
2.198000 0.324789 -0.348784 -0.753111
2.199000 0.787421 -0.867803 -1.333333
2.200000 1.047778 -1.275065 -1.333333
2.201000 1.333333 -1.333333 -1.333333
2.202000 1.333333 -1.333333 -1.333333
2.203000 1.305719 -1.333333 -1.333333
2.204000 1.137438 -1.333333 -1.333333
2.205000 0.762174 -1.148307 -1.333333
2.206000 0.341043 -0.749928 -1.007211
2.207000 -0.115303 -0.276082 -0.087440
2.208000 -0.572554 0.219727 0.839538
2.209000 -0.954204 0.667441 1.333333
2.210000 -1.245403 0.999495 1.333333
2.211000 -1.333333 1.276638 1.333333
2.212000 -1.333333 1.320852 1.333333
2.213000 -1.333333 1.198376 1.333333
2.214000 -1.333333 0.996694 1.333333
2.215000 -0.979035 0.578955 1.333333
2.216000 -0.600277 0.075491 0.625510
2.217000 -0.181218 -0.416377 -0.319941
2.218000 0.308865 -0.949880 -1.320397
2.219000 0.735944 -1.333333 -1.333333
2.220000 1.017206 -1.333333 -1.333333
2.221000 1.262602 -1.333333 -1.333333
2.222000 1.319878 -1.333333 -1.333333
2.223000 1.314655 -1.333333 -1.333333
2.224000 1.168703 -1.333333 -1.333333
2.225000 0.838021 -1.287872 -1.333333
2.226000 0.439629 -0.793489 -1.166445
2.227000 0.013280 -0.269185 -0.203020
2.228000 -0.479109 0.260548 0.826452
2.229000 -0.886788 0.794161 1.333333
2.230000 -1.204467 1.089991 1.333333
2.231000 -1.333333 1.333333 1.333333
2.232000 -1.333333 1.333333 1.333333
2.233000 -1.333333 1.333333 1.333333
2.234000 -1.280922 1.199951 1.333333
2.235000 -0.903923 0.748018 1.333333
2.236000 -0.509301 0.266452 0.693643
2.237000 -0.042690 -0.242393 -0.260711
2.238000 0.414165 -0.776462 -1.256264
2.239000 0.821031 -1.249604 -1.333333
2.240000 1.139812 -1.333333 -1.333333
2.241000 1.333333 -1.333333 -1.333333
2.242000 1.333333 -1.333333 -1.333333
2.243000 1.333333 -1.333333 -1.333333
2.244000 1.209968 -1.333333 -1.333333
2.245000 0.819426 -1.177105 -1.333333
2.246000 0.424610 -0.678981 -1.010341
2.247000 -0.029373 -0.174375 -0.057976
2.248000 -0.492754 0.367614 0.912592
2.249000 -0.926376 0.818831 1.333333
2.250000 -1.248999 1.141065 1.333333
2.251000 -1.333333 1.333333 1.333333
2.252000 -1.333333 1.333333 1.333333
2.253000 -1.333333 1.333333 1.333333
2.254000 -1.288189 1.189314 1.333333
2.255000 -0.889674 0.763524 1.333333
2.256000 -0.473954 0.269113 0.697508
2.257000 -0.032843 -0.226120 -0.290379
2.258000 0.420778 -0.779280 -1.267201
2.259000 0.869022 -1.273054 -1.333333
2.260000 1.180004 -1.333333 -1.333333
2.261000 1.333333 -1.333333 -1.333333
2.262000 1.333333 -1.333333 -1.333333
2.263000 1.333333 -1.333333 -1.333333
2.264000 1.192207 -1.333333 -1.333333
2.265000 0.842845 -1.176720 -1.333333
2.266000 0.424364 -0.698952 -1.050202
2.267000 0.016136 -0.149771 -0.084884
2.268000 -0.451644 0.379123 0.908331
2.269000 -0.917443 0.849198 1.333333
2.270000 -1.225373 1.149925 1.333333
2.271000 -1.333333 1.333333 1.333333
2.272000 -1.333333 1.333333 1.333333
2.273000 -1.333333 1.333333 1.333333
2.274000 -1.333333 1.180811 1.333333
2.275000 -0.903571 0.750443 1.333333
2.276000 -0.457581 0.283930 0.670660
2.277000 -0.015229 -0.227363 -0.288303
2.278000 0.477453 -0.729429 -1.272778
2.279000 0.931674 -1.176008 -1.333333
2.280000 1.199141 -1.333333 -1.333333
2.281000 1.333333 -1.333333 -1.333333
2.282000 1.333333 -1.333333 -1.333333
2.283000 1.333333 -1.333333 -1.333333
2.284000 1.183017 -1.333333 -1.333333
2.285000 0.818709 -1.153439 -1.333333
2.286000 0.424995 -0.652746 -1.013459
2.287000 0.008249 -0.145327 -0.062525
2.288000 -0.464757 0.391836 0.903500
2.289000 -0.908167 0.848373 1.333333
2.290000 -1.248891 1.185196 1.333333
2.291000 -1.333333 1.333333 1.333333
2.292000 -1.333333 1.333333 1.333333
2.293000 -1.333333 1.333333 1.333333
2.294000 -1.243071 1.166440 1.333333
2.295000 -0.866040 0.787177 1.333333
2.296000 -0.458327 0.279607 0.671484
2.297000 -0.057726 -0.262290 -0.282652
2.298000 0.411004 -0.813125 -1.296060
2.299000 0.870491 -1.287437 -1.333333
2.300000 1.133896 -1.333333 -1.333333
2.301000 1.333333 -1.333333 -1.333333
2.302000 1.333333 -1.333333 -1.333333
2.303000 1.333333 -1.333333 -1.333333
2.304000 1.238215 -1.333333 -1.333333
2.305000 0.860444 -1.097287 -1.333333
2.306000 0.451363 -0.609727 -0.984391
2.307000 0.000221 -0.087069 -0.033690
2.308000 -0.490426 0.416270 0.983076
2.309000 -0.905321 0.927604 1.333333
2.310000 -1.198725 1.229707 1.333333
2.311000 -1.333333 1.333333 1.333333
2.312000 -1.333333 1.333333 1.333333
2.313000 -1.333333 1.333333 1.333333
2.314000 -1.225984 1.172880 1.333333
2.315000 -0.882107 0.720773 1.333333
2.316000 -0.454860 0.251815 0.617110
2.317000 -0.004648 -0.279360 -0.352458
2.318000 0.467771 -0.833187 -1.317620
2.319000 0.868209 -1.282053 -1.333333
2.320000 1.168713 -1.333333 -1.333333
2.321000 1.333333 -1.333333 -1.333333
2.322000 1.333333 -1.333333 -1.333333
2.323000 1.333333 -1.333333 -1.333333
2.324000 1.177628 -1.333333 -1.333333
2.325000 0.827225 -1.117097 -1.333333
2.326000 0.396138 -0.604344 -0.938304
2.327000 -0.021094 -0.104014 0.014992
2.328000 -0.476775 0.448634 0.960711
2.329000 -0.884303 0.915748 1.333333
2.330000 -1.196773 1.232916 1.333333
2.331000 -1.333333 1.333333 1.333333
2.332000 -1.333333 1.333333 1.333333
2.333000 -1.333333 1.333333 1.333333
2.334000 -1.165405 1.191115 1.333333
2.335000 -0.865956 0.727157 1.333333
2.336000 -0.425064 0.245575 0.601244
2.337000 0.073747 -0.236144 -0.366463
2.338000 0.503113 -0.780389 -1.333333
2.339000 0.928766 -1.270438 -1.333333
2.340000 1.210882 -1.333333 -1.333333
2.341000 1.333333 -1.333333 -1.333333
2.342000 1.333333 -1.333333 -1.333333
2.343000 1.333333 -1.333333 -1.333333
2.344000 1.219373 -1.333333 -1.333333
2.345000 0.880855 -1.061670 -1.333333
2.346000 0.435833 -0.561253 -0.927401
2.347000 -0.016490 -0.042966 0.026421
2.348000 -0.485796 0.458752 1.020699
2.349000 -0.883124 0.947505 1.333333
2.350000 -1.185352 1.249296 1.333333
2.351000 -1.333333 1.333333 1.333333
2.352000 -1.333333 1.333333 1.333333
2.353000 -1.333333 1.333333 1.333333
2.354000 -1.148808 1.216318 1.333333
2.355000 -0.814768 0.791038 1.333333
2.356000 -0.381888 0.274769 0.585892
2.357000 0.039298 -0.254819 -0.360945
2.358000 0.507204 -0.778095 -1.316483
2.359000 0.944929 -1.232344 -1.333333
2.360000 1.224285 -1.333333 -1.333333
2.361000 1.333333 -1.333333 -1.333333
2.362000 1.333333 -1.333333 -1.333333
2.363000 1.333333 -1.333333 -1.333333
2.364000 1.234349 -1.333333 -1.333333
2.365000 0.886227 -1.023101 -1.333333
2.366000 0.428799 -0.513122 -0.891216
2.367000 0.013613 0.007731 0.069609
2.368000 -0.441948 0.532101 1.019841
2.369000 -0.869074 0.993195 1.333333
2.370000 -1.150535 1.312424 1.333333
2.371000 -1.333333 1.333333 1.333333
2.372000 -1.333333 1.333333 1.333333
2.373000 -1.333333 1.333333 1.333333
2.374000 -1.121148 1.208064 1.333333
2.375000 -0.777000 0.788983 1.333333
2.376000 -0.382406 0.269376 0.589902
2.377000 0.092638 -0.229744 -0.386835
2.378000 0.554235 -0.743478 -1.333333
2.379000 0.958565 -1.228540 -1.333333
2.380000 1.326360 -1.333333 -1.333333
2.381000 1.333333 -1.333333 -1.333333
2.382000 1.333333 -1.333333 -1.333333
2.383000 1.333333 -1.333333 -1.333333
2.384000 1.260349 -1.333333 -1.333333
2.385000 0.901425 -0.992334 -1.333333
2.386000 0.473942 -0.497347 -0.898237
2.387000 0.070726 0.070510 0.051693
2.388000 -0.407460 0.578065 1.051986
2.389000 -0.858247 1.025476 1.333333
2.390000 -1.150273 1.333333 1.333333
2.391000 -1.333333 1.333333 1.333333
2.392000 -1.333333 1.333333 1.333333
2.393000 -1.317017 1.333333 1.333333
2.394000 -1.116118 1.212720 1.333333
2.395000 -0.771120 0.781160 1.333333
2.396000 -0.313320 0.307125 0.552052
2.397000 0.120952 -0.223174 -0.436059
2.398000 0.559868 -0.753330 -1.333333
2.399000 0.963586 -1.232569 -1.333333
2.400000 1.277630 -1.333333 -1.333333
2.401000 1.333333 -1.333333 -1.333333
2.402000 1.333333 -1.333333 -1.333333
2.403000 1.333333 -1.333333 -1.333333
2.404000 1.216452 -1.333333 -1.333333
2.405000 0.862946 -0.999861 -1.333333
2.406000 0.443613 -0.481393 -0.891170
2.407000 0.015714 0.006887 0.085626
2.408000 -0.440993 0.555108 1.046993
2.409000 -0.852900 1.028669 1.333333
2.410000 -1.157572 1.333333 1.333333
2.411000 -1.333333 1.333333 1.333333
2.412000 -1.333333 1.333333 1.333333
2.413000 -1.305765 1.333333 1.333333
2.414000 -1.116268 1.176168 1.333333
2.415000 -0.781430 0.777959 1.333333
2.416000 -0.322035 0.295372 0.536672
2.417000 0.140425 -0.233409 -0.432782
2.418000 0.613697 -0.717984 -1.333333
2.419000 1.013640 -1.204889 -1.333333
2.420000 1.318999 -1.333333 -1.333333
2.421000 1.333333 -1.333333 -1.333333
2.422000 1.333333 -1.333333 -1.333333
2.423000 1.333333 -1.333333 -1.333333
2.424000 1.202565 -1.333333 -1.333333
2.425000 0.867808 -0.951883 -1.333333
2.426000 0.395556 -0.492091 -0.794228
2.427000 -0.049705 0.035669 0.134509
2.428000 -0.529362 0.529014 1.130348
2.429000 -0.897435 1.046649 1.333333
2.430000 -1.182611 1.333333 1.333333
2.431000 -1.333333 1.333333 1.333333
2.432000 -1.333333 1.333333 1.333333
2.433000 -1.333333 1.333333 1.333333
2.434000 -1.164947 1.151509 1.333333
2.435000 -0.810427 0.726516 1.333333
2.436000 -0.379199 0.211652 0.530237
2.437000 0.092619 -0.258112 -0.454480
2.438000 0.515233 -0.828110 -1.333333
2.439000 0.910950 -1.293553 -1.333333
2.440000 1.223074 -1.333333 -1.333333
2.441000 1.333333 -1.333333 -1.333333
2.442000 1.333333 -1.333333 -1.333333
2.443000 1.333333 -1.333333 -1.333333
2.444000 1.158081 -1.333333 -1.333333
2.445000 0.820555 -1.005647 -1.333333
2.446000 0.362257 -0.497044 -0.808085
2.447000 -0.054529 0.024928 0.162897
2.448000 -0.514019 0.572729 1.135791
2.449000 -0.904945 1.047444 1.333333
2.450000 -1.250886 1.318719 1.333333
2.451000 -1.333333 1.333333 1.333333
2.452000 -1.333333 1.333333 1.333333
2.453000 -1.333333 1.333333 1.333333
2.454000 -1.132878 1.138606 1.333333
2.455000 -0.838097 0.697740 1.333333
2.456000 -0.395487 0.215679 0.534130
2.457000 0.091285 -0.321591 -0.469896
2.458000 0.516057 -0.848106 -1.333333
2.459000 0.929603 -1.333333 -1.333333
2.460000 1.224381 -1.333333 -1.333333
2.461000 1.333333 -1.333333 -1.333333
2.462000 1.333333 -1.333333 -1.333333
2.463000 1.333333 -1.333333 -1.333333
2.464000 1.130207 -1.333333 -1.333333
2.465000 0.784681 -1.023183 -1.333333
2.466000 0.268897 -0.605551 -0.791318
2.467000 -0.170513 -0.038157 0.200079
2.468000 -0.583544 0.509855 1.149870
2.469000 -0.988663 0.967849 1.333333
2.470000 -1.248396 1.330975 1.333333
2.471000 -1.333333 1.333333 1.333333
2.472000 -1.333333 1.333333 1.333333
2.473000 -1.333333 1.333333 1.333333
2.474000 -1.137357 1.087250 1.333333
2.475000 -0.809749 0.673870 1.333333
2.476000 -0.374088 0.148331 0.480261
2.477000 0.087738 -0.369003 -0.543545
2.478000 0.544567 -0.885965 -1.333333
2.479000 0.940049 -1.327060 -1.333333
2.480000 1.227659 -1.333333 -1.333333
2.481000 1.333333 -1.333333 -1.333333
2.482000 1.333333 -1.333333 -1.333333
2.483000 1.332810 -1.333333 -1.333333
2.484000 1.096784 -1.333333 -1.333333
2.485000 0.765949 -1.077691 -1.333333
2.486000 0.310625 -0.525744 -0.795945
2.487000 -0.123416 0.009180 0.203178
2.488000 -0.621882 0.494908 1.183159
2.489000 -1.015250 0.962068 1.333333
2.490000 -1.273034 1.267394 1.333333
2.491000 -1.333333 1.333333 1.333333
2.492000 -1.333333 1.333333 1.333333
2.493000 -1.333333 1.333333 1.333333
2.494000 -1.181332 1.023811 1.333333
2.495000 -0.841971 0.635399 1.333333
2.496000 -0.399692 0.142860 0.466195
2.497000 0.039282 -0.432022 -0.527310
2.498000 0.522740 -0.906060 -1.333333
2.499000 0.918930 -1.333333 -1.333333
2.500000 1.245015 -1.333333 -1.333333
2.501000 1.333333 -1.333333 -1.333333
2.502000 1.333333 -1.333333 -1.333333
2.503000 1.333333 -1.333333 -1.333333
2.504000 1.096979 -1.333333 -1.333333
2.505000 0.751562 -1.033407 -1.333333
2.506000 0.331834 -0.529722 -0.785184
2.507000 -0.147973 -0.004629 0.213677
2.508000 -0.619994 0.510310 1.174618
2.509000 -1.015234 0.944717 1.333333
2.510000 -1.294302 1.292512 1.333333
2.511000 -1.333333 1.333333 1.333333
2.512000 -1.333333 1.333333 1.333333
2.513000 -1.333333 1.333333 1.333333
2.514000 -1.168951 1.030711 1.333333
2.515000 -0.845816 0.609884 1.333333
2.516000 -0.371666 0.092942 0.434461
2.517000 0.073923 -0.440741 -0.604659
2.518000 0.539217 -0.940267 -1.333333
2.519000 0.966526 -1.333333 -1.333333
2.520000 1.225173 -1.333333 -1.333333
2.521000 1.333333 -1.333333 -1.333333
2.522000 1.333333 -1.333333 -1.333333
2.523000 1.333333 -1.333333 -1.333333
2.524000 1.089225 -1.333333 -1.333333
2.525000 0.736989 -1.034921 -1.333333
2.526000 0.258994 -0.545497 -0.762480
2.527000 -0.177937 0.023126 0.261563
2.528000 -0.585183 0.557575 1.222116
2.529000 -0.988986 1.025277 1.333333
2.530000 -1.270313 1.303918 1.333333
2.531000 -1.333333 1.333333 1.333333
2.532000 -1.333333 1.333333 1.333333
2.533000 -1.333333 1.321733 1.333333
2.534000 -1.158160 1.018235 1.333333
2.535000 -0.770156 0.630219 1.333333
2.536000 -0.327916 0.146109 0.395423
2.537000 0.122384 -0.406786 -0.583176
2.538000 0.553304 -0.928208 -1.333333
2.539000 0.945128 -1.333333 -1.333333
2.540000 1.227470 -1.333333 -1.333333
2.541000 1.333333 -1.333333 -1.333333
2.542000 1.333333 -1.333333 -1.333333
2.543000 1.333333 -1.333333 -1.333333
2.544000 1.098052 -1.333333 -1.333333
2.545000 0.745249 -1.030680 -1.333333
2.546000 0.283944 -0.523417 -0.755195
2.547000 -0.163558 0.040961 0.268981
2.548000 -0.616803 0.544183 1.203741
2.549000 -0.997745 0.991377 1.333333
2.550000 -1.320166 1.313350 1.333333
2.551000 -1.333333 1.333333 1.333333
2.552000 -1.333333 1.333333 1.333333
2.553000 -1.333333 1.333333 1.333333
2.554000 -1.177963 0.987636 1.333333
2.555000 -0.873040 0.599436 1.333333
2.556000 -0.423103 0.044840 0.425074
2.557000 0.086104 -0.446579 -0.622383
2.558000 0.571030 -0.932183 -1.333333
2.559000 0.961946 -1.333333 -1.333333
2.560000 1.206326 -1.333333 -1.333333
2.561000 1.333333 -1.333333 -1.333333
2.562000 1.333333 -1.333333 -1.333333
2.563000 1.333333 -1.333333 -1.333333
2.564000 1.085380 -1.333333 -1.333333
2.565000 0.785064 -0.997577 -1.333333
2.566000 0.316462 -0.497887 -0.770505
2.567000 -0.148423 0.033122 0.223714
2.568000 -0.630311 0.481830 1.193717
2.569000 -1.026831 0.999746 1.333333
2.570000 -1.303323 1.333333 1.333333
2.571000 -1.333333 1.333333 1.333333
2.572000 -1.333333 1.333333 1.333333
2.573000 -1.333333 1.333333 1.333333
2.574000 -1.130657 1.017736 1.333333
2.575000 -0.744855 0.634996 1.333333
2.576000 -0.286636 0.141635 0.361167
2.577000 0.144849 -0.428669 -0.641808
2.578000 0.576233 -0.951292 -1.333333
2.579000 0.966138 -1.333333 -1.333333
2.580000 1.299264 -1.333333 -1.333333
2.581000 1.333333 -1.333333 -1.333333
2.582000 1.333333 -1.333333 -1.333333
2.583000 1.333333 -1.333333 -1.333333
2.584000 1.108904 -1.333333 -1.333333
2.585000 0.732896 -1.008414 -1.333333
2.586000 0.284881 -0.503583 -0.746701
2.587000 -0.163179 0.038023 0.293831
2.588000 -0.671728 0.559996 1.267765
2.589000 -1.068762 1.011249 1.333333
2.590000 -1.333333 1.333333 1.333333
2.591000 -1.333333 1.333333 1.333333
2.592000 -1.333333 1.333333 1.333333
2.593000 -1.333333 1.333333 1.333333
2.594000 -1.122187 0.976116 1.333333
2.595000 -0.760037 0.606633 1.281552
2.596000 -0.339579 0.070700 0.350861
2.597000 0.137378 -0.465901 -0.668264
2.598000 0.578596 -0.954114 -1.333333
2.599000 0.970345 -1.333333 -1.333333
2.600000 1.279090 -1.333333 -1.333333
2.601000 1.333333 -1.333333 -1.333333
2.602000 1.333333 -1.333333 -1.333333
2.603000 1.333333 -1.333333 -1.333333
2.604000 1.021291 -1.333333 -1.333333
2.605000 0.682623 -1.016278 -1.333333
2.606000 0.271919 -0.511959 -0.708868
2.607000 -0.184959 0.073916 0.315447
2.608000 -0.644496 0.574914 1.297086
2.609000 -1.051288 1.027866 1.333333
2.610000 -1.333333 1.333333 1.333333
2.611000 -1.333333 1.333333 1.333333
2.612000 -1.333333 1.333333 1.333333
2.613000 -1.333333 1.333333 1.333333
2.614000 -1.113233 0.964612 1.333333
2.615000 -0.767866 0.562548 1.270466
2.616000 -0.289964 0.097954 0.324873
2.617000 0.152690 -0.447188 -0.660156
2.618000 0.554188 -1.006139 -1.333333
2.619000 0.938912 -1.333333 -1.333333
2.620000 1.264669 -1.333333 -1.333333
2.621000 1.333333 -1.333333 -1.333333
2.622000 1.333333 -1.333333 -1.333333
2.623000 1.333333 -1.333333 -1.333333
2.624000 1.063179 -1.333333 -1.333333
2.625000 0.709116 -0.980911 -1.333333
2.626000 0.277835 -0.460528 -0.692138
2.627000 -0.179438 0.097834 0.356580
2.628000 -0.655825 0.601647 1.292302
2.629000 -1.076194 1.004022 1.333333
2.630000 -1.333333 1.333333 1.333333
2.631000 -1.333333 1.333333 1.333333
2.632000 -1.333333 1.333333 1.333333
2.633000 -1.333333 1.332623 1.333333
2.634000 -1.086025 0.970127 1.333333
2.635000 -0.748678 0.570515 1.236174
2.636000 -0.324746 0.045670 0.308759
2.637000 0.155149 -0.523878 -0.740783
2.638000 0.562646 -1.018790 -1.333333
2.639000 0.990131 -1.333333 -1.333333
2.640000 1.295923 -1.333333 -1.333333
2.641000 1.333333 -1.333333 -1.333333
2.642000 1.333333 -1.333333 -1.333333
2.643000 1.333333 -1.333333 -1.333333
2.644000 1.042508 -1.333333 -1.333333
2.645000 0.671287 -0.990291 -1.333333
2.646000 0.251961 -0.466214 -0.668622
2.647000 -0.183607 0.110539 0.352494
2.648000 -0.633235 0.605367 1.303311
2.649000 -1.018904 1.039661 1.333333
2.650000 -1.296398 1.333333 1.333333
2.651000 -1.333333 1.333333 1.333333
2.652000 -1.333333 1.333333 1.333333
2.653000 -1.333333 1.316956 1.333333
2.654000 -1.111940 0.940276 1.333333
2.655000 -0.760499 0.546268 1.252417
2.656000 -0.283860 0.066412 0.287861
2.657000 0.152149 -0.512029 -0.726308
2.658000 0.611392 -1.016570 -1.333333
2.659000 1.007937 -1.333333 -1.333333
2.660000 1.296160 -1.333333 -1.333333
2.661000 1.333333 -1.333333 -1.333333
2.662000 1.333333 -1.333333 -1.333333
2.663000 1.309498 -1.333333 -1.333333
2.664000 0.985726 -1.333333 -1.333333
2.665000 0.665270 -0.960451 -1.333333
2.666000 0.202768 -0.451752 -0.635351
2.667000 -0.265333 0.066027 0.412057
2.668000 -0.720277 0.562922 1.331039
2.669000 -1.096962 1.004946 1.333333
2.670000 -1.333333 1.333333 1.333333
2.671000 -1.333333 1.333333 1.333333
2.672000 -1.333333 1.333333 1.333333
2.673000 -1.333333 1.333333 1.333333
2.674000 -1.054768 0.976109 1.333333
2.675000 -0.752358 0.585681 1.270221
2.676000 -0.311532 0.060305 0.308945
2.677000 0.157833 -0.506648 -0.695586
2.678000 0.576810 -0.982385 -1.333333
2.679000 1.018754 -1.333333 -1.333333
2.680000 1.323790 -1.333333 -1.333333
2.681000 1.333333 -1.333333 -1.333333
2.682000 1.333333 -1.333333 -1.333333
2.683000 1.299689 -1.333333 -1.333333
2.684000 0.934813 -1.333333 -1.333333
2.685000 0.605824 -0.939994 -1.333333
2.686000 0.247101 -0.427682 -0.604403
2.687000 -0.252464 0.156806 0.465141
2.688000 -0.706102 0.669267 1.333333
2.689000 -1.082157 1.072639 1.333333
2.690000 -1.333333 1.333333 1.333333
2.691000 -1.333333 1.333333 1.333333
2.692000 -1.333333 1.333333 1.333333
2.693000 -1.333333 1.333333 1.333333
2.694000 -1.017520 1.011032 1.333333
2.695000 -0.672628 0.624813 1.227778
2.696000 -0.288882 0.077316 0.343826
2.697000 0.149985 -0.507794 -0.725895
2.698000 0.586222 -1.008013 -1.333333
2.699000 0.984557 -1.333333 -1.333333
2.700000 1.323454 -1.333333 -1.333333
2.701000 1.333333 -1.333333 -1.333333
2.702000 1.333333 -1.333333 -1.333333
2.703000 1.286295 -1.333333 -1.333333
2.704000 0.977465 -1.321716 -1.333333
2.705000 0.706803 -0.888959 -1.333333
2.706000 0.249204 -0.380418 -0.583511
2.707000 -0.270036 0.143855 0.509352
2.708000 -0.760128 0.631813 1.333333
2.709000 -1.128855 1.054942 1.333333
2.710000 -1.333333 1.333333 1.333333
2.711000 -1.333333 1.333333 1.333333
2.712000 -1.333333 1.333333 1.333333
2.713000 -1.333333 1.333333 1.333333
2.714000 -1.019810 1.043432 1.333333
2.715000 -0.678974 0.646696 1.273537
2.716000 -0.239510 0.125606 0.302487
2.717000 0.246952 -0.477137 -0.747862
2.718000 0.670017 -0.947322 -1.333333
2.719000 1.055026 -1.333333 -1.333333
2.720000 1.333333 -1.333333 -1.333333
2.721000 1.333333 -1.333333 -1.333333
2.722000 1.333333 -1.333333 -1.333333
2.723000 1.333333 -1.333333 -1.333333
2.724000 1.030179 -1.300252 -1.333333
2.725000 0.658967 -0.889398 -1.333333
2.726000 0.248029 -0.419094 -0.595866
2.727000 -0.208942 0.186555 0.452576
2.728000 -0.673989 0.685189 1.333333
2.729000 -1.053088 1.087552 1.333333
2.730000 -1.333333 1.333333 1.333333
2.731000 -1.333333 1.333333 1.333333
2.732000 -1.333333 1.333333 1.333333
2.733000 -1.333333 1.333333 1.333333
2.734000 -1.053603 0.947012 1.333333
2.735000 -0.696069 0.545301 1.166869
2.736000 -0.283515 -0.006406 0.234967
2.737000 0.203053 -0.542788 -0.822866
2.738000 0.680034 -0.999823 -1.333333
2.739000 1.017567 -1.333333 -1.333333
2.740000 1.333333 -1.333333 -1.333333
2.741000 1.333333 -1.333333 -1.333333
2.742000 1.333333 -1.333333 -1.333333
2.743000 1.317291 -1.333333 -1.333333
2.744000 0.949928 -1.333333 -1.333333
2.745000 0.614316 -0.964541 -1.333333
2.746000 0.189803 -0.445986 -0.587373
2.747000 -0.279819 0.123896 0.468613
2.748000 -0.736573 0.598917 1.333333
2.749000 -1.134363 1.029551 1.333333
2.750000 -1.333333 1.333333 1.333333
2.751000 -1.333333 1.333333 1.333333
2.752000 -1.333333 1.333333 1.333333
2.753000 -1.333333 1.319133 1.333333
2.754000 -1.069000 0.891380 1.333333
2.755000 -0.712328 0.460359 1.126628
2.756000 -0.302447 -0.041146 0.196988
2.757000 0.189845 -0.616897 -0.858850
2.758000 0.680968 -1.075863 -1.333333
2.759000 1.040834 -1.333333 -1.333333
2.760000 1.307697 -1.333333 -1.333333
2.761000 1.333333 -1.333333 -1.333333
2.762000 1.333333 -1.333333 -1.333333
2.763000 1.297984 -1.333333 -1.333333
2.764000 0.970752 -1.333333 -1.333333
2.765000 0.613564 -0.934649 -1.333333
2.766000 0.193721 -0.454710 -0.570940
2.767000 -0.312890 0.116868 0.501707
2.768000 -0.748636 0.627341 1.333333
2.769000 -1.082823 1.039191 1.333333
2.770000 -1.333333 1.333333 1.333333
2.771000 -1.333333 1.333333 1.333333
2.772000 -1.333333 1.333333 1.333333
2.773000 -1.333333 1.309878 1.333333
2.774000 -1.077191 0.885263 1.333333
2.775000 -0.755509 0.461022 1.142747
2.776000 -0.288675 -0.022437 0.230880
2.777000 0.214948 -0.597800 -0.883422
2.778000 0.627437 -1.104254 -1.333333
2.779000 1.003098 -1.333333 -1.333333
2.780000 1.312388 -1.333333 -1.333333
2.781000 1.333333 -1.333333 -1.333333
2.782000 1.333333 -1.333333 -1.333333
2.783000 1.333333 -1.333333 -1.333333
2.784000 0.941539 -1.327301 -1.333333
2.785000 0.592122 -0.941200 -1.333333
2.786000 0.161037 -0.425350 -0.546810
2.787000 -0.302764 0.143591 0.495109
2.788000 -0.732582 0.624624 1.333333
2.789000 -1.098422 1.053393 1.333333
2.790000 -1.333333 1.333333 1.333333
2.791000 -1.333333 1.333333 1.333333
2.792000 -1.333333 1.333333 1.333333
2.793000 -1.333333 1.271904 1.333333
2.794000 -1.056730 0.838871 1.333333
2.795000 -0.719632 0.411691 1.086147
2.796000 -0.287698 -0.069675 0.145628
2.797000 0.265034 -0.593436 -0.903149
2.798000 0.705645 -1.098687 -1.333333
2.799000 1.056233 -1.333333 -1.333333
2.800000 1.333333 -1.333333 -1.333333
2.801000 1.333333 -1.333333 -1.333333
2.802000 1.333333 -1.333333 -1.333333
2.803000 1.317373 -1.333333 -1.333333
2.804000 0.952340 -1.333333 -1.333333
2.805000 0.651121 -0.941881 -1.333333
2.806000 0.241073 -0.452437 -0.620112
2.807000 -0.255680 0.111198 0.400749
2.808000 -0.676727 0.593280 1.325888
2.809000 -1.075572 1.015180 1.333333
2.810000 -1.333333 1.333333 1.333333
2.811000 -1.333333 1.333333 1.333333
2.812000 -1.333333 1.333333 1.333333
2.813000 -1.333333 1.332551 1.333333
2.814000 -0.980611 0.933027 1.333333
2.815000 -0.608334 0.560123 1.093722
2.816000 -0.210401 0.025545 0.201564
2.817000 0.276705 -0.512334 -0.860543
2.818000 0.731189 -0.964046 -1.333333
2.819000 1.100325 -1.333333 -1.333333
2.820000 1.333333 -1.333333 -1.333333
2.821000 1.333333 -1.333333 -1.333333
2.822000 1.333333 -1.333333 -1.333333
2.823000 1.333333 -1.333333 -1.333333
2.824000 1.031985 -0.957642 -1.333333
2.825000 0.680108 -0.536933 -1.140549
2.826000 0.273464 0.017412 -0.202140
2.827000 -0.254110 0.618623 0.928860
2.828000 -0.692287 1.142667 1.333333
2.829000 -1.001212 1.333333 1.333333
2.830000 -1.273896 1.333333 1.333333
2.831000 -1.333333 1.333333 1.333333
2.832000 -1.333333 1.333333 1.333333
2.833000 -1.239896 1.333333 1.333333
2.834000 -0.903113 1.333333 1.333333
2.835000 -0.597824 1.178483 1.333333
2.836000 -0.180488 0.689622 0.785978
2.837000 0.265701 0.066853 -0.259165
2.838000 0.736397 -0.443689 -1.239014
2.839000 1.081645 -0.881366 -1.333333
2.840000 1.329385 -1.318506 -1.333333
2.841000 1.333333 -1.333333 -1.333333
2.842000 1.333333 -1.333333 -1.333333
2.843000 1.175863 -1.333333 -1.333333
2.844000 0.808627 -1.118850 -1.333333
2.845000 0.449407 -0.742684 -1.131068
2.846000 0.039538 -0.289591 -0.292333
2.847000 -0.444370 0.233075 0.754134
2.848000 -0.831797 0.719912 1.333333
2.849000 -1.203240 1.044641 1.333333
2.850000 -1.333333 1.296270 1.333333
2.851000 -1.333333 1.333333 1.333333
2.852000 -1.333333 1.323813 1.333333
2.853000 -1.333333 1.167128 1.333333
2.854000 -1.108118 0.708466 1.333333
2.855000 -0.748305 0.279570 0.950356
2.856000 -0.344508 -0.261877 0.027588
2.857000 0.178542 -0.820396 -1.050166
2.858000 0.595391 -1.323821 -1.333333
2.859000 0.967674 -1.333333 -1.333333
2.860000 1.294025 -1.333333 -1.333333
2.861000 1.333333 -1.333333 -1.333333
2.862000 1.333333 -1.333333 -1.333333
2.863000 1.283328 -1.333333 -1.333333
2.864000 0.910485 -1.333333 -1.333333
2.865000 0.564106 -1.017041 -1.333333
2.866000 0.107852 -0.523619 -0.560676
2.867000 -0.375063 0.053639 0.482510
2.868000 -0.806804 0.541959 1.333333
2.869000 -1.154440 0.988507 1.333333
2.870000 -1.333333 1.307450 1.333333
2.871000 -1.333333 1.333333 1.333333
2.872000 -1.333333 1.333333 1.333333
2.873000 -1.333333 1.190418 1.333333
2.874000 -1.029200 0.794879 1.333333
2.875000 -0.653495 0.369618 0.988048
2.876000 -0.229835 -0.104116 0.046760
2.877000 0.252623 -0.683542 -0.999652
2.878000 0.688961 -1.169583 -1.333333
2.879000 1.039027 -1.333333 -1.333333
2.880000 1.328316 -1.333333 -1.333333
2.881000 1.333333 -1.333333 -1.333333
2.882000 1.333333 -1.333333 -1.333333
2.883000 1.317794 -1.333333 -1.333333
2.884000 0.930538 -1.303755 -1.333333
2.885000 0.541524 -0.883108 -1.333333
2.886000 0.135744 -0.379539 -0.465876
2.887000 -0.320401 0.215219 0.624662
2.888000 -0.759962 0.711693 1.333333
2.889000 -1.097897 1.073331 1.333333
2.890000 -1.333333 1.333333 1.333333
2.891000 -1.333333 1.333333 1.333333
2.892000 -1.333333 1.333333 1.333333
2.893000 -1.333333 1.279655 1.333333
2.894000 -0.999885 0.825736 1.333333
2.895000 -0.622811 0.409398 0.955557
2.896000 -0.185136 -0.098967 0.035460
2.897000 0.283266 -0.665279 -1.011321
2.898000 0.679432 -1.167357 -1.333333
2.899000 1.011371 -1.333333 -1.333333
2.900000 1.308719 -1.333333 -1.333333
2.901000 1.333333 -1.333333 -1.333333
2.902000 1.333333 -1.333333 -1.333333
2.903000 1.303617 -1.333333 -1.333333
2.904000 0.948695 -1.272627 -1.333333
2.905000 0.546530 -0.874761 -1.333333
2.906000 0.139219 -0.350435 -0.431030
2.907000 -0.337148 0.242171 0.641891
2.908000 -0.748370 0.749148 1.333333
2.909000 -1.043491 1.185536 1.333333
2.910000 -1.333333 1.333333 1.333333
2.911000 -1.333333 1.333333 1.333333
2.912000 -1.333333 1.333333 1.333333
2.913000 -1.333333 1.220359 1.333333
2.914000 -1.008434 0.844295 1.333333
2.915000 -0.607887 0.417234 0.966184
2.916000 -0.153570 -0.066757 0.005593
2.917000 0.325645 -0.664666 -1.051256
2.918000 0.753368 -1.146049 -1.333333
2.919000 1.096582 -1.333333 -1.333333
2.920000 1.333333 -1.333333 -1.333333
2.921000 1.333333 -1.333333 -1.333333
2.922000 1.333333 -1.333333 -1.333333
2.923000 1.301441 -1.333333 -1.333333
2.924000 0.964071 -1.260858 -1.333333
2.925000 0.564833 -0.832018 -1.333333
2.926000 0.098179 -0.359237 -0.381520
2.927000 -0.362902 0.225173 0.660977
2.928000 -0.771904 0.739184 1.333333
2.929000 -1.131562 1.084292 1.333333
2.930000 -1.333333 1.333333 1.333333
2.931000 -1.333333 1.333333 1.333333
2.932000 -1.333333 1.333333 1.333333
2.933000 -1.333333 1.256674 1.333333
2.934000 -1.008536 0.818829 1.333333
2.935000 -0.637499 0.436965 0.981240
2.936000 -0.177106 -0.053483 0.067149
2.937000 0.294947 -0.645130 -1.018245
2.938000 0.745446 -1.135589 -1.333333
2.939000 1.075016 -1.333333 -1.333333
2.940000 1.333333 -1.333333 -1.333333
2.941000 1.333333 -1.333333 -1.333333
2.942000 1.333333 -1.333333 -1.333333
2.943000 1.274081 -1.333333 -1.333333
2.944000 0.978972 -1.201330 -1.333333
2.945000 0.616357 -0.805058 -1.333333
2.946000 0.192493 -0.285933 -0.398902
2.947000 -0.318313 0.277556 0.647085
2.948000 -0.761879 0.721731 1.333333
2.949000 -1.129134 1.099076 1.333333
2.950000 -1.333333 1.333333 1.333333
2.951000 -1.333333 1.333333 1.333333
2.952000 -1.333333 1.333333 1.333333
2.953000 -1.333333 1.300490 1.333333
2.954000 -0.939709 0.875466 1.333333
2.955000 -0.552179 0.404881 0.905483
2.956000 -0.153069 -0.104639 -0.015159
2.957000 0.321697 -0.678180 -1.052269
2.958000 0.740893 -1.142703 -1.333333
2.959000 1.097688 -1.333333 -1.333333
2.960000 1.333333 -1.333333 -1.333333
2.961000 1.333333 -1.333333 -1.333333
2.962000 1.333333 -1.333333 -1.333333
2.963000 1.278600 -1.333333 -1.333333
2.964000 0.906555 -1.246308 -1.333333
2.965000 0.528508 -0.817974 -1.279564
2.966000 0.107130 -0.322438 -0.354365
2.967000 -0.364649 0.256722 0.697594
2.968000 -0.800911 0.730598 1.333333
2.969000 -1.132831 1.093693 1.333333
2.970000 -1.333333 1.333333 1.333333
2.971000 -1.333333 1.333333 1.333333
2.972000 -1.333333 1.333333 1.333333
2.973000 -1.275550 1.316235 1.333333
2.974000 -0.928909 0.880162 1.333333
2.975000 -0.538868 0.454382 0.912140
2.976000 -0.091044 -0.081751 -0.025636
2.977000 0.370215 -0.634680 -1.062792
2.978000 0.759066 -1.131101 -1.333333
2.979000 1.108149 -1.333333 -1.333333
2.980000 1.333333 -1.333333 -1.333333
2.981000 1.333333 -1.333333 -1.333333
2.982000 1.333333 -1.333333 -1.333333
2.983000 1.304576 -1.333333 -1.333333
2.984000 0.930714 -1.222751 -1.333333
2.985000 0.572593 -0.790703 -1.269808
2.986000 0.151447 -0.273493 -0.357943
2.987000 -0.313717 0.323803 0.679294
2.988000 -0.729336 0.807441 1.333333
2.989000 -1.091922 1.166927 1.333333
2.990000 -1.333333 1.333333 1.333333
2.991000 -1.333333 1.333333 1.333333
2.992000 -1.333333 1.333333 1.333333
2.993000 -1.255300 1.292100 1.333333
2.994000 -0.902515 0.863595 1.333333
2.995000 -0.518416 0.422618 0.901154
2.996000 -0.109445 -0.082504 -0.051380
2.997000 0.418892 -0.656555 -1.109806
2.998000 0.861899 -1.118256 -1.333333
2.999000 1.160791 -1.333333 -1.333333
3.000000 1.333333 -1.333333 -1.333333
3.001000 1.333333 -1.333333 -1.333333
3.002000 1.333333 -1.333333 -1.333333
3.003000 1.305059 -1.333333 -1.333333
3.004000 0.958615 -1.158469 -1.333333
3.005000 0.611216 -0.680167 -1.246230
3.006000 0.193724 -0.194710 -0.303756
3.007000 -0.287857 0.394851 0.733192
3.008000 -0.728510 0.880879 1.333333
3.009000 -1.064578 1.198334 1.333333
3.010000 -1.333333 1.333333 1.333333
3.011000 -1.333333 1.333333 1.333333
3.012000 -1.333333 1.333333 1.333333
3.013000 -1.263291 1.320398 1.333333
3.014000 -0.868082 0.870307 1.333333
3.015000 -0.473119 0.443410 0.837520
3.016000 -0.035234 -0.067273 -0.070918
3.017000 0.420529 -0.621984 -1.105543
3.018000 0.865379 -1.098607 -1.333333
3.019000 1.202933 -1.333333 -1.333333
3.020000 1.333333 -1.333333 -1.333333
3.021000 1.333333 -1.333333 -1.333333
3.022000 1.333333 -1.333333 -1.333333
3.023000 1.333333 -1.333333 -1.333333
3.024000 0.982488 -1.117282 -1.333333
3.025000 0.633681 -0.649994 -1.200114
3.026000 0.231754 -0.129156 -0.297501
3.027000 -0.314684 0.378775 0.746442
3.028000 -0.749388 0.854618 1.333333
3.029000 -1.044671 1.237757 1.333333
3.030000 -1.281784 1.333333 1.333333
3.031000 -1.333333 1.333333 1.333333
3.032000 -1.333333 1.333333 1.333333
3.033000 -1.235532 1.333333 1.333333
3.034000 -0.834922 0.920231 1.333333
3.035000 -0.456797 0.436476 0.852353
3.036000 -0.018340 -0.033814 -0.098009
3.037000 0.439608 -0.600012 -1.064368
3.038000 0.864630 -1.065080 -1.333333
3.039000 1.213946 -1.333333 -1.333333
3.040000 1.333333 -1.333333 -1.333333
3.041000 1.333333 -1.333333 -1.333333
3.042000 1.333333 -1.333333 -1.333333
3.043000 1.333333 -1.333333 -1.333333
3.044000 1.006538 -1.084229 -1.333333
3.045000 0.629533 -0.643513 -1.206517
3.046000 0.196275 -0.145509 -0.272448
3.047000 -0.289422 0.405029 0.749982
3.048000 -0.711239 0.898224 1.333333
3.049000 -1.068183 1.243666 1.333333
3.050000 -1.333333 1.333333 1.333333
3.051000 -1.333333 1.333333 1.333333
3.052000 -1.333333 1.333333 1.333333
3.053000 -1.203642 1.333333 1.333333
3.054000 -0.831686 0.932228 1.333333
3.055000 -0.444071 0.515410 0.883037
3.056000 -0.025560 -0.018186 -0.049609
3.057000 0.460543 -0.576422 -1.097787
3.058000 0.897053 -1.079685 -1.333333
3.059000 1.246010 -1.333333 -1.333333
3.060000 1.333333 -1.333333 -1.333333
3.061000 1.333333 -1.333333 -1.333333
3.062000 1.333333 -1.333333 -1.333333
3.063000 1.326020 -1.333333 -1.333333
3.064000 0.958625 -1.088098 -1.333333
3.065000 0.561717 -0.660242 -1.144445
3.066000 0.139174 -0.151652 -0.219884
3.067000 -0.325687 0.438071 0.808095
3.068000 -0.729562 0.907133 1.333333
3.069000 -1.081639 1.264891 1.333333
3.070000 -1.333333 1.333333 1.333333
3.071000 -1.333333 1.333333 1.333333
3.072000 -1.333333 1.333333 1.333333
3.073000 -1.245018 1.313537 1.333333
3.074000 -0.869783 0.888722 1.333333
3.075000 -0.470866 0.436322 0.868687
3.076000 -0.062014 -0.075811 -0.109496
3.077000 0.418133 -0.654026 -1.128065
3.078000 0.848195 -1.121568 -1.333333
3.079000 1.102775 -1.333333 -1.333333
3.080000 1.333333 -1.333333 -1.333333
3.081000 1.333333 -1.333333 -1.333333
3.082000 1.333333 -1.333333 -1.333333
3.083000 1.288090 -1.333333 -1.333333
3.084000 0.913754 -1.123727 -1.333333
3.085000 0.495472 -0.649624 -1.080198
3.086000 0.066921 -0.155921 -0.153916
3.087000 -0.410519 0.387398 0.852679
3.088000 -0.838725 0.881248 1.333333
3.089000 -1.126754 1.198490 1.333333
3.090000 -1.333333 1.333333 1.333333
3.091000 -1.333333 1.333333 1.333333
3.092000 -1.333333 1.333333 1.333333
3.093000 -1.284317 1.258485 1.333333
3.094000 -0.911867 0.833192 1.333333
3.095000 -0.510347 0.385960 0.822181
3.096000 -0.102362 -0.162274 -0.124237
3.097000 0.381802 -0.708898 -1.153780
3.098000 0.772728 -1.245915 -1.333333
3.099000 1.112058 -1.333333 -1.333333
3.100000 1.333333 -1.333333 -1.333333
3.101000 1.333333 -1.333333 -1.333333
3.102000 1.333333 -1.333333 -1.333333
3.103000 1.239271 -1.333333 -1.333333
3.104000 0.856703 -1.140160 -1.333333
3.105000 0.453631 -0.694804 -1.052632
3.106000 0.040453 -0.152417 -0.143507
3.107000 -0.438949 0.368389 0.866459
3.108000 -0.862495 0.836423 1.333333
3.109000 -1.165473 1.182967 1.333333
3.110000 -1.333333 1.333333 1.333333
3.111000 -1.333333 1.333333 1.333333
3.112000 -1.333333 1.333333 1.333333
3.113000 -1.261661 1.255720 1.333333
3.114000 -0.955338 0.758220 1.333333
3.115000 -0.566326 0.273214 0.781807
3.116000 -0.092818 -0.189690 -0.199128
3.117000 0.418217 -0.741309 -1.188969
3.118000 0.845954 -1.201780 -1.333333
3.119000 1.139152 -1.333333 -1.333333
3.120000 1.333333 -1.333333 -1.333333
3.121000 1.333333 -1.333333 -1.333333
3.122000 1.333333 -1.333333 -1.333333
3.123000 1.214687 -1.333333 -1.333333
3.124000 0.852083 -1.190201 -1.333333
3.125000 0.424516 -0.681584 -1.061117
3.126000 0.001755 -0.178997 -0.105859
3.127000 -0.495306 0.329537 0.880029
3.128000 -0.914040 0.809056 1.333333
3.129000 -1.188794 1.164755 1.333333
3.130000 -1.333333 1.333333 1.333333
3.131000 -1.333333 1.333333 1.333333
3.132000 -1.333333 1.333333 1.333333
3.133000 -1.270773 1.215210 1.333333
3.134000 -0.908770 0.783541 1.333333
3.135000 -0.497015 0.343825 0.763705
3.136000 -0.074230 -0.228625 -0.217703
3.137000 0.419087 -0.739993 -1.222381
3.138000 0.822799 -1.240430 -1.333333
3.139000 1.104244 -1.333333 -1.333333
3.140000 1.333333 -1.333333 -1.333333
3.141000 1.333333 -1.333333 -1.333333
3.142000 1.333333 -1.333333 -1.333333
3.143000 1.202790 -1.333333 -1.333333
3.144000 0.853287 -1.150768 -1.333333
3.145000 0.468934 -0.710858 -1.096684
3.146000 0.048868 -0.185853 -0.174812
3.147000 -0.473282 0.336750 0.884692
3.148000 -0.926544 0.805126 1.333333
3.149000 -1.191357 1.176889 1.333333
3.150000 -1.333333 1.333333 1.333333
3.151000 -1.333333 1.333333 1.333333
3.152000 -1.333333 1.333333 1.333333
3.153000 -1.289723 1.202006 1.333333
3.154000 -0.906729 0.772365 1.333333
3.155000 -0.531424 0.254340 0.724605
3.156000 -0.065584 -0.227603 -0.263716
3.157000 0.431339 -0.774556 -1.241997
3.158000 0.853625 -1.248466 -1.333333
3.159000 1.126598 -1.333333 -1.333333
3.160000 1.333333 -1.333333 -1.333333
3.161000 1.333333 -1.333333 -1.333333
3.162000 1.333333 -1.333333 -1.333333
3.163000 1.144084 -1.333333 -1.333333
3.164000 0.767096 -1.210719 -1.333333
3.165000 0.437139 -0.658969 -1.044037
3.166000 0.031411 -0.154839 -0.105469
3.167000 -0.459682 0.361485 0.890147
3.168000 -0.881496 0.868300 1.333333
3.169000 -1.190179 1.170724 1.333333
3.170000 -1.333333 1.333333 1.333333
3.171000 -1.333333 1.333333 1.333333
3.172000 -1.333333 1.333333 1.333333
3.173000 -1.239265 1.203391 1.333333
3.174000 -0.907004 0.760439 1.333333
3.175000 -0.518368 0.300469 0.726267
3.176000 -0.041338 -0.222224 -0.247119
3.177000 0.432626 -0.743017 -1.268235
3.178000 0.863811 -1.229192 -1.333333
3.179000 1.162376 -1.333333 -1.333333
3.180000 1.333333 -1.333333 -1.333333
3.181000 1.333333 -1.333333 -1.333333
3.182000 1.308105 -1.333333 -1.333333
3.183000 1.184111 -1.333333 -1.333333
3.184000 0.789209 -1.145264 -1.333333
3.185000 0.401965 -0.690673 -1.015646
3.186000 0.014375 -0.168687 -0.101924
3.187000 -0.453017 0.398978 0.908982
3.188000 -0.905664 0.851122 1.333333
3.189000 -1.199290 1.197587 1.333333
3.190000 -1.333333 1.333333 1.333333
3.191000 -1.333333 1.333333 1.333333
3.192000 -1.333333 1.333333 1.333333
3.193000 -1.277551 1.190992 1.333333
3.194000 -0.923897 0.761034 1.333333
